PE FL                   SPECTRUM    ASCII       PEDS        1.60        
  -1
SAMPLE~1.SP
24/04/12
16:00:35.00
24/04/12
16:00:35.00
Jan

897.500000
1









LS55
405.00
5.00
5.00
SCAN
1
20
100
100
0
400
0
1
0
1
5
ON
450 405 
1 0 0
#HDR
-1
-1
#GR
NM

0.00002384185791015625
0.0
450.000000
0.500000
896
8
351.214848
-0.173924
#DATA
450.000000	-0.133000  
450.500000	0.063871   
451.000000	0.239484   
451.500000	0.288356   
452.000000	0.197151   
452.500000	0.009750   
453.000000	-0.034977  
453.500000	-0.081863  
454.000000	-0.081363  
454.500000	-0.081696  
455.000000	0.034166   
455.500000	0.090871   
456.000000	0.013030   
456.500000	-0.118712  
457.000000	-0.102113  
457.500000	0.044227   
458.000000	0.208287   
458.500000	0.343280   
459.000000	0.359007   
459.500000	0.239128   
460.000000	0.051212   
460.500000	-0.076590  
461.000000	-0.052295  
461.500000	0.014083   
462.000000	0.105833   
462.500000	0.152984   
463.000000	0.151643   
463.500000	0.073310   
464.000000	-0.043522  
464.500000	-0.021121  
465.000000	0.105840   
465.500000	0.280742   
466.000000	0.360750   
466.500000	0.369121   
467.000000	0.266075   
467.500000	0.162893   
468.000000	0.072840   
468.500000	0.089053   
469.000000	0.063977   
469.500000	0.037833   
470.000000	0.049287   
470.500000	0.130590   
471.000000	0.163628   
471.500000	0.145189   
472.000000	0.163583   
472.500000	0.114439   
473.000000	0.081719   
473.500000	0.001007   
474.000000	0.035500   
474.500000	0.143393   
475.000000	0.295984   
475.500000	0.289121   
476.000000	0.098030   
476.500000	-0.087651  
477.000000	-0.049371  
477.500000	0.093568   
478.000000	0.127742   
478.500000	0.005265   
479.000000	-0.085840  
479.500000	-0.164393  
480.000000	-0.071234  
480.500000	0.109303   
481.000000	0.319143   
481.500000	0.394386   
482.000000	0.286068   
482.500000	0.224909   
483.000000	0.263393   
483.500000	0.257212   
484.000000	0.159590   
484.500000	0.029787   
485.000000	0.084113   
485.500000	0.193287   
486.000000	0.249659   
486.500000	0.035651   
487.000000	-0.087128  
487.500000	-0.146931  
488.000000	0.019265   
488.500000	0.126560   
489.000000	0.280916   
489.500000	0.406227   
490.000000	0.526712   
490.500000	0.474863   
491.000000	0.310992   
491.500000	0.256159   
492.000000	0.307977   
492.500000	0.339272   
493.000000	0.211280   
493.500000	0.186643   
494.000000	0.318393   
494.500000	0.445977   
495.000000	0.322356   
495.500000	0.190712   
496.000000	0.267575   
496.500000	0.416530   
497.000000	0.508553   
497.500000	0.522484   
498.000000	0.527068   
498.500000	0.476401   
499.000000	0.359765   
499.500000	0.261727   
500.000000	0.220704   
500.500000	0.365537   
501.000000	0.587840   
501.500000	0.804053   
502.000000	0.771734   
502.500000	0.671810   
503.000000	0.580204   
503.500000	0.616825   
504.000000	0.586484   
504.500000	0.612015   
505.000000	0.599174   
505.500000	0.657507   
506.000000	0.698242   
506.500000	0.829598   
507.000000	0.868257   
507.500000	0.889424   
508.000000	0.875871   
508.500000	0.988984   
509.000000	1.044765   
509.500000	1.020484   
510.000000	0.986575   
510.500000	1.034515   
511.000000	1.040757   
511.500000	0.865378   
512.000000	0.670999   
512.500000	0.775439   
513.000000	1.143128   
513.500000	1.390659   
514.000000	1.361606   
514.500000	1.241348   
515.000000	1.374643   
515.500000	1.558696   
516.000000	1.514886   
516.500000	1.226750   
517.000000	1.112916   
517.500000	1.260727   
518.000000	1.533090   
518.500000	1.720992   
519.000000	1.881659   
519.500000	2.010151   
520.000000	2.042537   
520.500000	2.049416   
521.000000	2.267742   
521.500000	2.564439   
522.000000	2.741128   
522.500000	2.624666   
523.000000	2.598757   
523.500000	2.719772   
524.000000	3.006825   
524.500000	3.052409   
525.000000	3.028393   
525.500000	2.994295   
526.000000	3.089409   
526.500000	3.124787   
527.000000	3.077515   
527.500000	3.035606   
528.000000	3.268598   
528.500000	3.574742   
529.000000	3.903621   
529.500000	3.963128   
530.000000	4.137000   
530.500000	4.201000   
531.000000	4.428500   
531.500000	4.537863   
532.000000	4.863234   
532.500000	5.261924   
533.000000	5.690719   
533.500000	5.849590   
534.000000	5.681765   
534.500000	5.634439   
535.000000	6.093257   
535.500000	6.909719   
536.000000	7.394174   
536.500000	7.424030   
537.000000	7.361378   
537.500000	7.510568   
538.000000	7.983015   
538.500000	8.357537   
539.000000	8.923568   
539.500000	9.653363   
540.000000	10.353848  
540.500000	10.440204  
541.000000	10.074575  
541.500000	10.066500  
542.000000	10.619977  
542.500000	11.394265  
543.000000	11.676401  
543.500000	11.761106  
544.000000	11.561007  
544.500000	11.627772  
545.000000	11.694500  
545.500000	11.874689  
546.000000	11.964348  
546.500000	11.873575  
547.000000	11.715500  
547.500000	11.705303  
548.000000	11.995962  
548.500000	12.299818  
549.000000	12.284318  
549.500000	11.822795  
550.000000	11.452659  
550.500000	11.554128  
551.000000	11.913931  
551.500000	12.096250  
552.000000	11.856719  
552.500000	11.568393  
553.000000	11.527727  
553.500000	11.948378  
554.000000	12.368007  
554.500000	12.601121  
555.000000	12.500416  
555.500000	12.525492  
556.000000	13.036803  
556.500000	13.675734  
557.000000	14.118113  
557.500000	14.036257  
558.000000	13.694030  
558.500000	13.333416  
559.000000	13.469659  
559.500000	14.006340  
560.000000	14.781469  
560.500000	15.519409  
561.000000	15.883984  
561.500000	16.015378  
562.000000	16.149340  
562.500000	16.413674  
563.000000	16.600931  
563.500000	16.761727  
564.000000	17.288689  
564.500000	18.303840  
565.000000	19.358143  
565.500000	19.874916  
566.000000	20.101348  
566.500000	20.321136  
567.000000	20.566795  
567.500000	20.856712  
568.000000	21.207719  
568.500000	22.013628  
569.000000	22.942750  
569.500000	23.766333  
570.000000	24.100962  
570.500000	24.427553  
571.000000	24.638553  
571.500000	25.180704  
572.000000	25.976053  
572.500000	26.795318  
573.000000	27.424356  
573.500000	27.848106  
574.000000	28.387712  
574.500000	28.738181  
575.000000	29.022075  
575.500000	29.194787  
576.000000	30.092257  
576.500000	30.866007  
577.000000	31.436719  
577.500000	31.403068  
578.000000	32.129651  
578.500000	32.981196  
579.000000	33.972280  
579.500000	34.215234  
580.000000	35.003734  
580.500000	35.808401  
581.000000	36.314757  
581.500000	36.269621  
582.000000	36.960477  
582.500000	38.029651  
583.000000	39.116424  
583.500000	39.458681  
584.000000	39.987166  
584.500000	40.715113  
585.000000	41.600621  
585.500000	42.150863  
586.000000	42.604636  
586.500000	43.494121  
587.000000	44.687219  
587.500000	46.135166  
588.000000	47.002659  
588.500000	48.119757  
589.000000	48.966113  
589.500000	49.922492  
590.000000	50.725136  
590.500000	51.763037  
591.000000	53.237227  
591.500000	54.913265  
592.000000	56.484878  
592.500000	57.050628  
593.000000	57.610098  
593.500000	58.337522  
594.000000	60.484840  
594.500000	62.154151  
595.000000	63.276325  
595.500000	63.683287  
596.000000	64.991590  
596.500000	66.915924  
597.000000	69.218015  
597.500000	71.442553  
598.000000	73.161181  
598.500000	74.447613  
599.000000	75.127121  
599.500000	76.193000  
600.000000	77.507143  
600.500000	78.506401  
601.000000	79.316409  
601.500000	80.536151  
602.000000	83.020212  
602.500000	85.215924  
603.000000	86.779772  
603.500000	88.046166  
604.000000	90.092439  
604.500000	92.502340  
605.000000	94.207742  
605.500000	95.261189  
606.000000	96.829393  
606.500000	99.899045  
607.000000	102.706507 
607.500000	104.717878 
608.000000	105.655469 
608.500000	106.541590 
609.000000	107.686606 
609.500000	109.222931 
610.000000	111.488537 
610.500000	114.567651 
611.000000	117.804462 
611.500000	120.011522 
612.000000	121.885772 
612.500000	123.818166 
613.000000	126.593060 
613.500000	129.320416 
614.000000	132.374098 
614.500000	135.424696 
615.000000	138.091500 
615.500000	140.363363 
616.000000	142.826590 
616.500000	145.756219 
617.000000	148.326757 
617.500000	150.345848 
618.000000	152.569977 
618.500000	154.175734 
619.000000	156.461272 
619.500000	159.776386 
620.000000	165.368696 
620.500000	169.257666 
621.000000	172.904174 
621.500000	175.697007 
622.000000	179.274386 
622.500000	182.763780 
623.000000	186.810310 
623.500000	190.476666 
624.000000	192.862439 
624.500000	194.792227 
625.000000	197.209939 
625.500000	199.892363 
626.000000	201.678886 
626.500000	204.289151 
627.000000	208.917431 
627.500000	213.866590 
628.000000	219.140795 
628.500000	224.130356 
629.000000	229.010696 
629.500000	232.125075 
630.000000	234.953833 
630.500000	237.138840 
631.000000	241.074401 
631.500000	245.404659 
632.000000	250.817712 
632.500000	255.172234 
633.000000	259.635318 
633.500000	263.143333 
634.000000	265.877446 
634.500000	268.188545 
635.000000	271.891871 
635.500000	277.791378 
636.000000	282.648545 
636.500000	284.694348 
637.000000	286.080469 
637.500000	289.312431 
638.000000	293.262643 
638.500000	296.042780 
639.000000	298.221060 
639.500000	301.415204 
640.000000	304.875310 
640.500000	307.742090 
641.000000	311.319356 
641.500000	315.593484 
642.000000	318.084977 
642.500000	318.134204 
643.000000	318.812022 
643.500000	321.386553 
644.000000	325.236257 
644.500000	327.955060 
645.000000	329.237954 
645.500000	330.710757 
646.000000	333.763977 
646.500000	337.779174 
647.000000	339.803265 
647.500000	340.837000 
648.000000	341.161643 
648.500000	343.128409 
649.000000	345.388242 
649.500000	347.959734 
650.000000	349.607196 
650.500000	349.924560 
651.000000	349.941128 
651.500000	350.638212 
652.000000	350.180606 
652.500000	349.353621 
653.000000	349.414356 
653.500000	350.750151 
654.000000	351.214848 
654.500000	350.949257 
655.000000	349.266606 
655.500000	348.312106 
656.000000	346.904787 
656.500000	346.765545 
657.000000	345.755492 
657.500000	343.364310 
658.000000	339.177037 
658.500000	337.451840 
659.000000	338.173712 
659.500000	339.139333 
660.000000	337.606856 
660.500000	333.636583 
661.000000	330.295765 
661.500000	327.287477 
662.000000	324.691166 
662.500000	321.189749 
663.000000	319.010719 
663.500000	316.611174 
664.000000	313.756977 
664.500000	309.685893 
665.000000	305.861575 
665.500000	302.385272 
666.000000	298.020174 
666.500000	293.206242 
667.000000	288.921227 
667.500000	286.163818 
668.000000	283.437757 
668.500000	280.892363 
669.000000	276.991325 
669.500000	272.586833 
670.000000	267.004734 
670.500000	263.091393 
671.000000	259.416553 
671.500000	254.930583 
672.000000	247.654742 
672.500000	240.116871 
673.000000	233.986507 
673.500000	229.505075 
674.000000	225.274386 
674.500000	220.044696 
675.000000	214.422840 
675.500000	209.249454 
676.000000	205.691734 
676.500000	202.428386 
677.000000	197.861992 
677.500000	192.216090 
678.000000	186.108227 
678.500000	180.620363 
679.000000	175.771212 
679.500000	172.056075 
680.000000	168.065227 
680.500000	163.220992 
681.000000	157.601681 
681.500000	153.429143 
682.000000	149.867492 
682.500000	146.519212 
683.000000	141.842000 
683.500000	136.891893 
684.000000	131.731833 
684.500000	126.832939 
685.000000	121.987151 
685.500000	118.510659 
686.000000	116.464356 
686.500000	114.299446 
687.000000	110.878742 
687.500000	106.878681 
688.000000	103.439553 
688.500000	100.279666 
689.000000	97.051196  
689.500000	94.539159  
690.000000	92.292340  
690.500000	89.842674  
691.000000	86.016954  
691.500000	82.123242  
692.000000	78.668196  
692.500000	77.086242  
693.000000	76.024060  
693.500000	74.996553  
694.000000	72.645515  
694.500000	70.206151  
695.000000	67.871204  
695.500000	65.962992  
696.000000	64.066909  
696.500000	62.175484  
697.000000	60.620803  
697.500000	58.905303  
698.000000	56.746159  
698.500000	54.264712  
699.000000	52.627272  
699.500000	51.603643  
700.000000	50.353189  
700.500000	48.701272  
701.000000	46.828477  
701.500000	45.217431  
702.000000	43.690681  
702.500000	42.395628  
703.000000	41.152924  
703.500000	40.012590  
704.000000	38.985628  
704.500000	38.759060  
705.000000	38.258681  
705.500000	37.135416  
706.000000	35.303901  
706.500000	34.381833  
707.000000	33.849386  
707.500000	33.555924  
708.000000	32.406068  
708.500000	31.372106  
709.000000	30.065621  
709.500000	29.116136  
710.000000	28.072628  
710.500000	27.295871  
711.000000	26.821818  
711.500000	26.644651  
712.000000	26.403439  
712.500000	25.667500  
713.000000	24.449424  
713.500000	23.620318  
714.000000	23.246219  
714.500000	23.142590  
715.000000	22.980810  
715.500000	22.795295  
716.000000	22.267856  
716.500000	21.384871  
717.000000	20.254416  
717.500000	19.423015  
718.000000	19.328909  
718.500000	19.412681  
719.000000	19.334431  
719.500000	18.662560  
720.000000	18.063393  
720.500000	17.213113  
721.000000	16.651886  
721.500000	16.229386  
722.000000	16.212939  
722.500000	15.874060  
723.000000	15.153750  
723.500000	14.202242  
724.000000	13.677401  
724.500000	13.612848  
725.000000	13.858606  
725.500000	14.192492  
726.000000	13.964810  
726.500000	13.161159  
727.000000	12.306075  
727.500000	11.963522  
728.000000	12.164977  
728.500000	12.348833  
729.000000	12.131181  
729.500000	11.713151  
730.000000	11.481803  
730.500000	11.320568  
731.000000	11.048810  
731.500000	10.561424  
732.000000	10.378492  
732.500000	10.269234  
733.000000	10.093977  
733.500000	9.593484   
734.000000	9.597583   
734.500000	9.807613   
735.000000	9.892439   
735.500000	9.432757   
736.000000	9.014484   
736.500000	8.946083   
737.000000	9.184696   
737.500000	9.263916   
738.000000	8.965696   
738.500000	8.430825   
739.000000	8.010022   
739.500000	7.851030   
740.000000	7.877053   
740.500000	8.132363   
741.000000	8.302159   
741.500000	8.194295   
742.000000	7.676219   
742.500000	7.462795   
743.000000	7.461681   
743.500000	7.489916   
744.000000	7.148060   
744.500000	6.846931   
745.000000	6.751462   
745.500000	6.858212   
746.000000	6.912833   
746.500000	6.979227   
747.000000	6.891742   
747.500000	6.813848   
748.000000	6.762696   
748.500000	6.875992   
749.000000	6.723022   
749.500000	6.230265   
750.000000	5.620643   
750.500000	5.300303   
751.000000	5.347409   
751.500000	5.546159   
752.000000	5.781446   
752.500000	5.791439   
753.000000	5.516257   
753.500000	5.140939   
754.000000	4.920196   
754.500000	4.808128   
755.000000	4.841106   
755.500000	4.935674   
756.000000	5.042696   
756.500000	4.939621   
757.000000	4.979477   
757.500000	5.152856   
758.000000	5.298098   
758.500000	5.032689   
759.000000	4.617954   
759.500000	4.492363   
760.000000	4.798893   
760.500000	5.211401   
761.000000	5.376462   
761.500000	5.217401   
762.000000	4.958196   
762.500000	4.720810   
763.000000	4.592075   
763.500000	4.400651   
764.000000	4.407287   
764.500000	4.401469   
765.000000	4.352393   
765.500000	4.170439   
766.000000	4.255530   
766.500000	4.298848   
767.000000	4.116265   
767.500000	3.784909   
768.000000	3.876280   
768.500000	4.107181   
769.000000	4.131886   
769.500000	3.896568   
770.000000	3.947621   
770.500000	3.955431   
771.000000	3.933015   
771.500000	3.823227   
772.000000	3.937727   
772.500000	3.809840   
773.000000	3.576499   
773.500000	3.329022   
774.000000	3.321545   
774.500000	3.396583   
775.000000	3.421484   
775.500000	3.405598   
776.000000	3.195416   
776.500000	3.076651   
777.000000	2.969053   
777.500000	3.057060   
778.000000	3.070303   
778.500000	3.185060   
779.000000	3.211893   
779.500000	3.234795   
780.000000	3.078954   
780.500000	3.009537   
781.000000	3.017257   
781.500000	3.223712   
782.000000	3.355318   
782.500000	3.374969   
783.000000	3.180772   
783.500000	2.991886   
784.000000	2.804848   
784.500000	2.803348   
785.000000	2.916939   
785.500000	3.106515   
786.000000	3.202696   
786.500000	3.194037   
787.000000	3.110015   
787.500000	2.999704   
788.000000	2.943681   
788.500000	2.969568   
789.000000	3.034742   
789.500000	3.023015   
790.000000	3.022386   
790.500000	3.000507   
791.000000	2.913022   
791.500000	2.778916   
792.000000	2.684166   
792.500000	2.480401   
793.000000	2.285954   
793.500000	2.329075   
794.000000	2.605750   
794.500000	2.833522   
795.000000	2.865583   
795.500000	2.931196   
796.000000	3.112484   
796.500000	2.929825   
797.000000	2.414954   
797.500000	1.995704   
798.000000	2.175348   
798.500000	2.391507   
799.000000	2.500446   
799.500000	2.380840   
800.000000	2.505189   
800.500000	2.632469   
801.000000	2.593068   
801.500000	2.444000   
802.000000	2.357416   
802.500000	2.391719   
803.000000	2.310106   
803.500000	2.250022   
804.000000	2.159522   
804.500000	2.264477   
805.000000	2.349401   
805.500000	2.376060   
806.000000	2.118643   
806.500000	1.783606   
807.000000	1.518863   
807.500000	1.697378   
808.000000	1.979696   
808.500000	2.303606   
809.000000	2.450348   
809.500000	2.602560   
810.000000	2.421553   
810.500000	2.185992   
811.000000	1.942545   
811.500000	1.956643   
812.000000	1.947507   
812.500000	1.942924   
813.000000	1.852939   
813.500000	1.677424   
814.000000	1.472015   
814.500000	1.330439   
815.000000	1.513674   
815.500000	1.724560   
816.000000	1.886696   
816.500000	1.669568   
817.000000	1.521212   
817.500000	1.516280   
818.000000	1.699303   
818.500000	1.519219   
819.000000	1.244787   
819.500000	1.139651   
820.000000	1.480340   
820.500000	1.776113   
821.000000	1.908196   
821.500000	1.956280   
822.000000	2.208939   
822.500000	2.374053   
823.000000	2.271128   
823.500000	2.070901   
824.000000	2.084174   
824.500000	2.253484   
825.000000	2.247106   
825.500000	2.113136   
826.000000	2.057537   
826.500000	2.031810   
827.000000	1.975840   
827.500000	1.978969   
828.000000	2.228378   
828.500000	2.242787   
829.000000	1.956984   
829.500000	1.435363   
830.000000	1.317734   
830.500000	1.411916   
831.000000	1.603734   
831.500000	1.565643   
832.000000	1.422416   
832.500000	1.299651   
833.000000	1.230863   
833.500000	1.169083   
834.000000	1.005833   
834.500000	0.980318   
835.000000	0.993325   
835.500000	0.990181   
836.000000	0.842060   
836.500000	0.855681   
837.000000	0.970939   
837.500000	1.085037   
838.000000	1.041257   
838.500000	0.884424   
839.000000	0.744689   
839.500000	0.647106   
840.000000	0.626749   
840.500000	0.630742   
841.000000	0.705090   
841.500000	0.800030   
842.000000	0.832257   
842.500000	0.680174   
843.000000	0.548530   
843.500000	0.583272   
844.000000	0.688128   
844.500000	0.709325   
845.000000	0.629136   
845.500000	0.556234   
846.000000	0.496833   
846.500000	0.543174   
847.000000	0.625166   
847.500000	0.750416   
848.000000	0.772537   
848.500000	0.685553   
849.000000	0.440007   
849.500000	0.238962   
850.000000	0.320689   
850.500000	0.536030   
851.000000	0.564083   
851.500000	0.304507   
852.000000	0.109090   
852.500000	0.155045   
853.000000	0.246772   
853.500000	0.199212   
854.000000	0.078984   
854.500000	0.065106   
855.000000	0.102136   
855.500000	0.108060   
856.000000	0.174924   
856.500000	0.258378   
857.000000	0.329856   
857.500000	0.214022   
858.000000	0.140901   
858.500000	0.086356   
859.000000	0.114689   
859.500000	0.095727   
860.000000	0.103333   
860.500000	0.056651   
861.000000	0.027780   
861.500000	0.077196   
862.000000	0.180689   
862.500000	0.183643   
863.000000	0.083757   
863.500000	-0.006174  
864.000000	-0.071666  
864.500000	-0.131984  
865.000000	-0.126219  
865.500000	-0.015462  
866.000000	0.086174   
866.500000	0.159098   
867.000000	0.182325   
867.500000	0.183818   
868.000000	0.041916   
868.500000	-0.131371  
869.000000	-0.167780  
869.500000	-0.006984  
870.000000	0.095787   
870.500000	0.084719   
871.000000	-0.026121  
871.500000	-0.083030  
872.000000	-0.080863  
872.500000	-0.008825  
873.000000	-0.007825  
873.500000	-0.019651  
874.000000	-0.054234  
874.500000	0.067704   
875.000000	0.172462   
875.500000	0.182340   
876.000000	0.043439   
876.500000	-0.071962  
877.000000	-0.117128  
877.500000	-0.063196  
878.000000	0.010015   
878.500000	0.112318   
879.000000	0.103037   
879.500000	0.057257   
880.000000	-0.007083  
880.500000	0.023053   
881.000000	0.011378   
881.500000	0.013757   
882.000000	-0.015500  
882.500000	0.001530   
883.000000	-0.001333  
883.500000	-0.031075  
884.000000	-0.046492  
884.500000	-0.069477  
885.000000	-0.122159  
885.500000	-0.050037  
886.000000	0.057128   
886.500000	0.123310   
887.000000	0.038931   
887.500000	0.015818   
888.000000	0.002962   
888.500000	0.030007   
889.000000	-0.068522  
889.500000	-0.081787  
890.000000	-0.012189  
890.500000	0.034227   
891.000000	-0.016318  
891.500000	-0.135962  
892.000000	-0.173924  
892.500000	-0.124393  
893.000000	0.029765   
893.500000	0.063545   
894.000000	0.018545   
894.500000	-0.098719  
895.000000	-0.132196  
895.500000	-0.080030  
896.000000	-0.047833  
896.500000	-0.070704  
897.000000	-0.097287  
897.500000	-0.022022  

