PE FL                   SPECTRUM    ASCII       PEDS        1.60        
  -1
SAABB9~1.SP
24/04/12
16:51:56.00
24/04/12
16:51:56.00
Jan

897.500000
1









LS55
405.00
5.00
5.00
SCAN
1
20
100
100
0
400
0
1
0
1
5
ON
450 405 
1 0 0
#HDR
-1
-1
#GR
NM

0.00002384185791015625
0.0
450.000000
0.500000
896
8
224.823719
-0.832000
#DATA
450.000000	-0.832000  
450.500000	-0.083249  
451.000000	0.290977   
451.500000	0.225522   
452.000000	0.081492   
452.500000	0.054257   
453.000000	0.087128   
453.500000	0.096575   
454.000000	0.239227   
454.500000	0.336969   
455.000000	0.355265   
455.500000	0.102204   
456.000000	-0.060007  
456.500000	-0.099189  
457.000000	0.022613   
457.500000	0.056113   
458.000000	-0.010098  
458.500000	-0.216606  
459.000000	-0.378931  
459.500000	-0.286106  
460.000000	-0.090696  
460.500000	0.239363   
461.000000	0.272325   
461.500000	0.124159   
462.000000	-0.235628  
462.500000	-0.289553  
463.000000	-0.114401  
463.500000	0.208583   
464.000000	0.223765   
464.500000	0.066242   
465.000000	-0.047106  
465.500000	-0.061704  
466.000000	-0.015106  
466.500000	-0.082393  
467.000000	0.012000   
467.500000	0.225651   
468.000000	0.395113   
468.500000	0.398681   
469.000000	0.343212   
469.500000	0.281757   
470.000000	0.121462   
470.500000	-0.100181  
471.000000	-0.243272  
471.500000	-0.165742  
472.000000	-0.001643  
472.500000	0.071878   
473.000000	0.047272   
473.500000	-0.095037  
474.000000	-0.126500  
474.500000	-0.035424  
475.000000	0.219931   
475.500000	0.391969   
476.000000	0.344757   
476.500000	0.065772   
477.000000	-0.082454  
477.500000	-0.101901  
478.000000	-0.038446  
478.500000	-0.112568  
479.000000	-0.073893  
479.500000	-0.097704  
480.000000	-0.180795  
480.500000	-0.262856  
481.000000	-0.075939  
481.500000	0.193659   
482.000000	0.248007   
482.500000	0.238196   
483.000000	0.279553   
483.500000	0.425356   
484.000000	0.347765   
484.500000	0.064378   
485.000000	-0.201462  
485.500000	-0.242507  
486.000000	-0.042037  
486.500000	0.023378   
487.000000	0.005189   
487.500000	-0.055181  
488.000000	0.170174   
488.500000	0.261515   
489.000000	0.257712   
489.500000	0.012795   
490.000000	-0.049575  
490.500000	-0.053196  
491.000000	0.116189   
491.500000	0.195303   
492.000000	0.253977   
492.500000	0.122348   
493.000000	-0.019242  
493.500000	-0.059060  
494.000000	-0.018848  
494.500000	0.041166   
495.000000	0.044848   
495.500000	0.163287   
496.000000	0.178553   
496.500000	0.221363   
497.000000	0.207810   
497.500000	0.335984   
498.000000	0.302537   
498.500000	0.315840   
499.000000	0.342984   
499.500000	0.493015   
500.000000	0.541272   
500.500000	0.502969   
501.000000	0.428750   
501.500000	0.409166   
502.000000	0.564272   
502.500000	0.809553   
503.000000	0.967507   
503.500000	0.939606   
504.000000	0.779962   
504.500000	0.619765   
505.000000	0.540325   
505.500000	0.699727   
506.000000	0.922295   
506.500000	1.064371   
507.000000	0.971045   
507.500000	0.884416   
508.000000	0.963772   
508.500000	1.092280   
509.000000	1.143916   
509.500000	1.107295   
510.000000	1.078992   
510.500000	1.057075   
511.000000	1.030568   
511.500000	1.080636   
512.000000	1.240416   
512.500000	1.264598   
513.000000	1.232242   
513.500000	1.176075   
514.000000	1.398628   
514.500000	1.546810   
515.000000	1.659181   
515.500000	1.446833   
516.000000	1.538378   
516.500000	1.630613   
517.000000	1.817704   
517.500000	1.698848   
518.000000	1.806333   
518.500000	2.029628   
519.000000	2.320106   
519.500000	2.178621   
520.000000	2.056515   
520.500000	2.055871   
521.000000	2.280424   
521.500000	2.377545   
522.000000	2.350409   
522.500000	2.403098   
523.000000	2.510931   
523.500000	2.697121   
524.000000	2.722250   
524.500000	2.851356   
525.000000	2.920568   
525.500000	3.191954   
526.000000	3.499984   
526.500000	3.793712   
527.000000	3.716204   
527.500000	3.528568   
528.000000	3.559280   
528.500000	3.982204   
529.000000	4.330750   
529.500000	4.460954   
530.000000	4.409424   
530.500000	4.811303   
531.000000	5.426234   
531.500000	5.959795   
532.000000	6.073424   
532.500000	5.925924   
533.000000	5.997037   
533.500000	6.288136   
534.000000	6.732401   
534.500000	6.769583   
535.000000	6.666030   
535.500000	6.647719   
536.000000	7.204386   
536.500000	7.878060   
537.000000	8.256325   
537.500000	8.257681   
538.000000	8.236931   
538.500000	8.489772   
539.000000	8.996484   
539.500000	9.679045   
540.000000	10.633530  
540.500000	10.978840  
541.000000	10.797030  
541.500000	10.358560  
542.000000	10.792424  
542.500000	11.335500  
543.000000	11.619954  
543.500000	11.487053  
544.000000	11.851916  
544.500000	12.304742  
545.000000	12.398795  
545.500000	11.908545  
546.000000	11.403340  
546.500000	11.255250  
547.000000	11.476348  
547.500000	11.540333  
548.000000	11.414310  
548.500000	11.025666  
549.000000	10.883121  
549.500000	10.994553  
550.000000	11.264083  
550.500000	11.368810  
551.000000	11.264340  
551.500000	11.118181  
552.000000	11.214863  
552.500000	11.464742  
553.000000	11.947356  
553.500000	12.365575  
554.000000	12.391568  
554.500000	12.211871  
555.000000	12.331219  
555.500000	12.668484  
556.000000	12.818742  
556.500000	12.838083  
557.000000	13.102931  
557.500000	13.535022  
558.000000	13.666840  
558.500000	13.710803  
559.000000	14.393159  
559.500000	15.257787  
560.000000	15.917825  
560.500000	15.621863  
561.000000	15.301689  
561.500000	15.442106  
562.000000	16.501613  
562.500000	17.349500  
563.000000	17.369356  
563.500000	16.889000  
564.000000	17.109022  
564.500000	18.108742  
565.000000	18.978174  
565.500000	19.440295  
566.000000	19.815962  
566.500000	20.094022  
567.000000	20.002454  
567.500000	19.922727  
568.000000	20.592189  
568.500000	21.572507  
569.000000	22.261143  
569.500000	22.436772  
570.000000	22.808537  
570.500000	23.300772  
571.000000	23.778416  
571.500000	23.925742  
572.000000	24.029045  
572.500000	24.129750  
573.000000	24.655386  
573.500000	25.442303  
574.000000	26.059037  
574.500000	26.351060  
575.000000	26.828856  
575.500000	27.780356  
576.000000	28.618803  
576.500000	28.975212  
577.000000	29.014348  
577.500000	29.506537  
578.000000	30.112204  
578.500000	30.589689  
579.000000	30.781977  
579.500000	31.316772  
580.000000	31.797810  
580.500000	32.533583  
581.000000	33.015856  
581.500000	33.683636  
582.000000	34.323075  
582.500000	35.378545  
583.000000	36.242901  
583.500000	36.628856  
584.000000	36.318545  
584.500000	36.545681  
585.000000	37.730818  
585.500000	39.413689  
586.000000	40.462545  
586.500000	40.969045  
587.000000	41.437386  
587.500000	42.105568  
588.000000	42.683000  
588.500000	43.724356  
589.000000	45.404575  
589.500000	47.088742  
590.000000	47.979136  
590.500000	48.414545  
591.000000	48.869378  
591.500000	49.293401  
592.000000	49.789613  
592.500000	50.962181  
593.000000	52.460757  
593.500000	53.347780  
594.000000	53.813916  
594.500000	54.048280  
595.000000	54.231583  
595.500000	54.757204  
596.000000	56.438507  
596.500000	58.801704  
597.000000	60.906568  
597.500000	62.152500  
598.000000	63.602757  
598.500000	64.347234  
599.000000	64.588295  
599.500000	65.131242  
600.000000	67.335734  
600.500000	70.437704  
601.000000	72.323507  
601.500000	72.358568  
602.000000	71.379772  
602.500000	72.190689  
603.000000	74.256909  
603.500000	77.251901  
604.000000	78.227674  
604.500000	78.336946  
605.000000	78.723083  
605.500000	81.321272  
606.000000	84.526166  
606.500000	86.848401  
607.000000	87.899931  
607.500000	88.493356  
608.000000	89.474939  
608.500000	90.185560  
609.000000	91.713196  
609.500000	93.652772  
610.000000	96.151651  
610.500000	97.802219  
611.000000	99.527492  
611.500000	100.988333 
612.000000	102.604969 
612.500000	104.423977 
613.000000	106.409462 
613.500000	107.760598 
614.000000	108.812469 
614.500000	110.608174 
615.000000	113.628909 
615.500000	116.217628 
616.000000	117.860651 
616.500000	118.322977 
617.000000	119.179636 
617.500000	121.169469 
618.000000	124.585734 
618.500000	127.420053 
619.000000	128.380969 
619.500000	129.139840 
620.000000	131.460795 
620.500000	134.602416 
621.000000	136.828977 
621.500000	138.804946 
622.000000	141.906287 
622.500000	144.771954 
623.000000	147.078219 
623.500000	148.615409 
624.000000	151.432333 
624.500000	154.225734 
625.000000	156.518128 
625.500000	157.762075 
626.000000	159.360810 
626.500000	161.512196 
627.000000	163.546916 
627.500000	165.523303 
628.000000	166.662280 
628.500000	169.323090 
629.000000	172.098992 
629.500000	174.767477 
630.000000	176.037159 
630.500000	178.153962 
631.000000	180.600143 
631.500000	184.169507 
632.000000	187.822681 
632.500000	190.804765 
633.000000	191.975742 
633.500000	192.409015 
634.000000	194.811840 
634.500000	198.251348 
635.000000	200.744242 
635.500000	201.532446 
636.000000	202.037143 
636.500000	202.372636 
637.000000	202.621575 
637.500000	204.585121 
638.000000	207.769553 
638.500000	211.386939 
639.000000	213.561810 
639.500000	214.449015 
640.000000	214.973234 
640.500000	216.315037 
641.000000	218.036856 
641.500000	218.200000 
642.000000	218.022659 
642.500000	218.270416 
643.000000	219.740424 
643.500000	220.385037 
644.000000	220.454931 
644.500000	220.354674 
645.000000	219.818030 
645.500000	220.085712 
646.000000	221.275333 
646.500000	223.373219 
647.000000	224.144530 
647.500000	224.280954 
648.000000	224.447416 
648.500000	224.823719 
649.000000	223.745704 
649.500000	222.343439 
650.000000	221.849643 
650.500000	222.811151 
651.000000	223.384795 
651.500000	223.165863 
652.000000	222.380946 
652.500000	221.829143 
653.000000	220.686060 
653.500000	218.714060 
654.000000	217.094378 
654.500000	216.102939 
655.000000	215.320272 
655.500000	213.701106 
656.000000	211.532681 
656.500000	209.117401 
657.000000	206.387553 
657.500000	204.089340 
658.000000	202.285128 
658.500000	201.377530 
659.000000	199.002553 
659.500000	196.368681 
660.000000	193.816939 
660.500000	192.407356 
661.000000	190.485174 
661.500000	188.291628 
662.000000	184.806863 
662.500000	181.232719 
663.000000	177.571151 
663.500000	174.580871 
664.000000	170.384356 
664.500000	166.895515 
665.000000	163.891750 
665.500000	162.385409 
666.000000	159.295371 
666.500000	155.335590 
667.000000	150.606780 
667.500000	146.990242 
668.000000	144.641272 
668.500000	142.011484 
669.000000	138.682818 
669.500000	134.264590 
670.000000	131.936265 
670.500000	130.144553 
671.000000	128.062030 
671.500000	123.639977 
672.000000	119.375500 
672.500000	115.988893 
673.000000	113.690242 
673.500000	111.122037 
674.000000	107.597409 
674.500000	103.912765 
675.000000	100.605712 
675.500000	97.325015  
676.000000	93.837333  
676.500000	90.891742  
677.000000	88.826424  
677.500000	86.879969  
678.000000	84.535492  
678.500000	81.825083  
679.000000	79.526833  
679.500000	77.218772  
680.000000	74.946734  
680.500000	72.027083  
681.000000	69.870416  
681.500000	68.311477  
682.000000	67.090280  
682.500000	65.740303  
683.000000	64.532871  
683.500000	62.906075  
684.000000	60.777492  
684.500000	58.275772  
685.000000	56.439416  
685.500000	54.894068  
686.000000	53.129431  
686.500000	50.962128  
687.000000	49.372818  
687.500000	47.863113  
688.000000	46.283833  
688.500000	44.494265  
689.000000	42.989166  
689.500000	42.449136  
690.000000	42.094477  
690.500000	41.366136  
691.000000	39.900090  
691.500000	38.630280  
692.000000	37.383946  
692.500000	36.210924  
693.000000	34.592916  
693.500000	33.092507  
694.000000	31.693136  
694.500000	30.972196  
695.000000	30.508992  
695.500000	30.293969  
696.000000	29.548272  
696.500000	28.606598  
697.000000	27.391181  
697.500000	26.811416  
698.000000	26.143545  
698.500000	25.298030  
699.000000	24.273787  
699.500000	23.653371  
700.000000	23.343250  
700.500000	22.805310  
701.000000	22.371219  
701.500000	21.819234  
702.000000	21.318500  
702.500000	20.088643  
703.000000	19.209189  
703.500000	18.757537  
704.000000	19.136424  
704.500000	18.750916  
705.000000	17.715742  
705.500000	16.525484  
706.000000	16.233136  
706.500000	16.268068  
707.000000	16.065780  
707.500000	15.479651  
708.000000	15.129174  
708.500000	14.778515  
709.000000	14.230136  
709.500000	13.746484  
710.000000	13.869810  
710.500000	14.245136  
711.000000	14.280386  
711.500000	13.390121  
712.000000	12.482750  
712.500000	11.874477  
713.000000	11.814446  
713.500000	11.924416  
714.000000	12.098878  
714.500000	11.891325  
715.000000	11.330825  
715.500000	10.816446  
716.000000	10.676750  
716.500000	10.711931  
717.000000	10.638340  
717.500000	10.443621  
718.000000	10.316401  
718.500000	10.181780  
719.000000	10.053030  
719.500000	9.670015   
720.000000	9.193098   
720.500000	8.743227   
721.000000	8.561606   
721.500000	8.457295   
722.000000	8.518909   
722.500000	8.502356   
723.000000	8.401159   
723.500000	8.144174   
724.000000	8.238621   
724.500000	8.428643   
725.000000	8.535234   
725.500000	8.081636   
726.000000	7.702310   
726.500000	7.342840   
727.000000	7.203621   
727.500000	6.967378   
728.000000	6.993090   
728.500000	6.973075   
729.000000	7.037363   
729.500000	6.939984   
730.000000	6.824249   
730.500000	6.743234   
731.000000	6.703924   
731.500000	6.855795   
732.000000	7.022939   
732.500000	7.081113   
733.000000	6.790431   
733.500000	6.451946   
734.000000	6.153219   
734.500000	6.034068   
735.000000	5.893090   
735.500000	5.663939   
736.000000	5.507651   
736.500000	5.476946   
737.000000	5.465545   
737.500000	5.445128   
738.000000	5.463909   
738.500000	5.685704   
739.000000	5.907212   
739.500000	6.011136   
740.000000	5.943000   
740.500000	5.696469   
741.000000	5.308681   
741.500000	5.067545   
742.000000	5.115666   
742.500000	5.201348   
743.000000	5.032378   
743.500000	4.604000   
744.000000	4.284954   
744.500000	4.215204   
745.000000	4.371310   
745.500000	4.612393   
746.000000	4.860037   
746.500000	4.916212   
747.000000	4.802696   
747.500000	4.509212   
748.000000	4.311704   
748.500000	4.299439   
749.000000	4.332772   
749.500000	4.256340   
750.000000	4.041568   
750.500000	3.945196   
751.000000	3.951575   
751.500000	4.025863   
752.000000	4.084204   
752.500000	4.193386   
753.000000	4.168818   
753.500000	3.938015   
754.000000	3.553719   
754.500000	3.318901   
755.000000	3.534636   
755.500000	3.945053   
756.000000	4.172189   
756.500000	4.023015   
757.000000	3.856477   
757.500000	3.752598   
758.000000	3.716606   
758.500000	3.423560   
759.000000	3.220553   
759.500000	3.135969   
760.000000	3.285174   
760.500000	3.384075   
761.000000	3.431409   
761.500000	3.519409   
762.000000	3.766765   
762.500000	3.907333   
763.000000	3.957318   
763.500000	3.920712   
764.000000	3.938628   
764.500000	3.848522   
765.000000	3.729037   
765.500000	3.505424   
766.000000	3.326234   
766.500000	3.117810   
767.000000	3.137553   
767.500000	3.335977   
768.000000	3.502446   
768.500000	3.458659   
769.000000	3.255143   
769.500000	3.066128   
770.000000	3.041386   
770.500000	3.118750   
771.000000	3.150022   
771.500000	3.129090   
772.000000	2.990378   
772.500000	2.915962   
773.000000	2.891386   
773.500000	3.022537   
774.000000	3.001643   
774.500000	2.945272   
775.000000	2.864856   
775.500000	2.995159   
776.000000	3.026090   
776.500000	2.944727   
777.000000	2.822000   
777.500000	2.952545   
778.000000	3.040621   
778.500000	3.033007   
779.000000	2.850492   
779.500000	2.777272   
780.000000	2.723446   
780.500000	2.801636   
781.000000	2.897772   
781.500000	3.040151   
782.000000	3.005530   
782.500000	2.843151   
783.000000	2.702431   
783.500000	2.659795   
784.000000	2.696954   
784.500000	2.709795   
785.000000	2.726030   
785.500000	2.700416   
786.000000	2.744962   
786.500000	2.700515   
787.000000	2.644916   
787.500000	2.575121   
788.000000	2.614507   
788.500000	2.653333   
789.000000	2.675462   
789.500000	2.545992   
790.000000	2.457628   
790.500000	2.485219   
791.000000	2.654931   
791.500000	2.773886   
792.000000	2.618568   
792.500000	2.348174   
793.000000	2.130598   
793.500000	2.216787   
794.000000	2.280166   
794.500000	2.431909   
795.000000	2.435500   
795.500000	2.485068   
796.000000	2.397537   
796.500000	2.467386   
797.000000	2.520053   
797.500000	2.498613   
798.000000	2.312969   
798.500000	2.234318   
799.000000	2.287545   
799.500000	2.377719   
800.000000	2.315416   
800.500000	2.262856   
801.000000	2.274007   
801.500000	2.361310   
802.000000	2.331522   
802.500000	2.144310   
803.000000	1.792946   
803.500000	1.659378   
804.000000	1.790522   
804.500000	2.043265   
805.000000	2.001772   
805.500000	1.738250   
806.000000	1.427575   
806.500000	1.345287   
807.000000	1.395393   
807.500000	1.526871   
808.000000	1.579810   
808.500000	1.490742   
809.000000	1.281015   
809.500000	1.149810   
810.000000	1.319545   
810.500000	1.500128   
811.000000	1.583803   
811.500000	1.442825   
812.000000	1.354121   
812.500000	1.392659   
813.000000	1.620696   
813.500000	1.752113   
814.000000	1.571446   
814.500000	1.357015   
815.000000	1.367901   
815.500000	1.775310   
816.000000	1.957303   
816.500000	1.851333   
817.000000	1.503590   
817.500000	1.287689   
818.000000	1.312446   
818.500000	1.650386   
819.000000	1.885090   
819.500000	1.725689   
820.000000	1.401674   
820.500000	1.478462   
821.000000	1.962068   
821.500000	2.391318   
822.000000	2.355583   
822.500000	2.228992   
823.000000	2.235295   
823.500000	2.223106   
824.000000	2.056265   
824.500000	2.096719   
825.000000	2.546257   
825.500000	2.893340   
826.000000	2.765348   
826.500000	2.219863   
827.000000	1.759469   
827.500000	1.481219   
828.000000	1.456000   
828.500000	1.532560   
829.000000	1.644643   
829.500000	1.666325   
830.000000	1.649992   
830.500000	1.506962   
831.000000	1.220060   
831.500000	1.002939   
832.000000	1.042416   
832.500000	1.168378   
833.000000	1.209083   
833.500000	1.185583   
834.000000	1.126606   
834.500000	1.029765   
835.000000	0.900356   
835.500000	0.855621   
836.000000	0.919871   
836.500000	1.033643   
837.000000	1.101560   
837.500000	1.071363   
838.000000	1.009977   
838.500000	0.891234   
839.000000	0.876234   
839.500000	0.853007   
840.000000	0.815280   
840.500000	0.643462   
841.000000	0.581734   
841.500000	0.600583   
842.000000	0.753742   
842.500000	0.844977   
843.000000	0.901810   
843.500000	0.826128   
844.000000	0.606734   
844.500000	0.338833   
845.000000	0.263507   
845.500000	0.364068   
846.000000	0.461946   
846.500000	0.462689   
847.000000	0.427696   
847.500000	0.432780   
848.000000	0.337803   
848.500000	0.129151   
849.000000	-0.031530  
849.500000	0.018583   
850.000000	0.151287   
850.500000	0.294166   
851.000000	0.380234   
851.500000	0.382090   
852.000000	0.154719   
852.500000	-0.083090  
853.000000	-0.128984  
853.500000	0.076780   
854.000000	0.179833   
854.500000	0.217128   
855.000000	0.221803   
855.500000	0.267462   
856.000000	0.166765   
856.500000	0.071303   
857.000000	0.034416   
857.500000	0.082833   
858.000000	0.143000   
858.500000	0.280416   
859.000000	0.397045   
859.500000	0.323628   
860.000000	0.096287   
860.500000	-0.024128  
861.000000	-0.015310  
861.500000	-0.048749  
862.000000	-0.033106  
862.500000	0.034946   
863.000000	0.070356   
863.500000	-0.131992  
864.000000	-0.328356  
864.500000	-0.379090  
865.000000	-0.175121  
865.500000	0.110863   
866.000000	0.326704   
866.500000	0.279325   
867.000000	0.039931   
867.500000	-0.104431  
868.000000	-0.033833  
868.500000	0.098174   
869.000000	0.107060   
869.500000	0.064712   
870.000000	0.029719   
870.500000	0.006484   
871.000000	-0.040454  
871.500000	-0.048022  
872.000000	-0.056568  
872.500000	-0.068249  
873.000000	-0.050848  
873.500000	0.001780   
874.000000	0.015946   
874.500000	-0.059325  
875.000000	-0.084242  
875.500000	-0.056583  
876.000000	-0.077818  
876.500000	-0.156984  
877.000000	-0.147727  
877.500000	-0.001128  
878.000000	0.104159   
878.500000	0.094689   
879.000000	-0.051818  
879.500000	-0.180340  
880.000000	-0.277295  
880.500000	-0.190545  
881.000000	-0.065750  
881.500000	0.002598   
882.000000	-0.048560  
882.500000	-0.096401  
883.000000	-0.122090  
883.500000	-0.109583  
884.000000	-0.140356  
884.500000	-0.148856  
885.000000	-0.140242  
885.500000	-0.134409  
886.000000	-0.150856  
886.500000	-0.144424  
887.000000	-0.102356  
887.500000	-0.046454  
888.000000	-0.055765  
888.500000	-0.143636  
889.000000	-0.212734  
889.500000	-0.222924  
890.000000	-0.128333  
890.500000	-0.076371  
891.000000	-0.091704  
891.500000	-0.150598  
892.000000	-0.124636  
892.500000	-0.062121  
893.000000	-0.011659  
893.500000	-0.038560  
894.000000	-0.105136  
894.500000	-0.187196  
895.000000	-0.119007  
895.500000	0.059000   
896.000000	0.213310   
896.500000	0.183113   
897.000000	0.071325   
897.500000	-0.057545  

