PE FL                   SPECTRUM    ASCII       PEDS        1.60        
  -1
SA83A5~1.SP
24/04/12
15:36:21.00
24/04/12
15:36:21.00
Jan

897.500000
1









LS55
405.00
5.00
5.00
SCAN
1
20
100
100
0
400
0
1
0
1
5
ON
450 405 
1 0 0
#HDR
-1
-1
#GR
NM

0.00002384185791015625
0.0
450.000000
0.500000
896
8
389.586992
-0.237333
#DATA
450.000000	0.812999   
450.500000	0.128537   
451.000000	-0.216568  
451.500000	-0.165401  
452.000000	0.062007   
452.500000	0.058015   
453.000000	0.014454   
453.500000	0.020325   
454.000000	0.279356   
454.500000	0.480810   
455.000000	0.427022   
455.500000	0.196022   
456.000000	0.022893   
456.500000	0.002825   
457.000000	-0.026848  
457.500000	-0.074689  
458.000000	-0.135590  
458.500000	-0.075871  
459.000000	0.005659   
459.500000	-0.004696  
460.000000	-0.087765  
460.500000	-0.046643  
461.000000	0.121712   
461.500000	0.164378   
462.000000	0.086128   
462.500000	0.018409   
463.000000	0.089825   
463.500000	0.173378   
464.000000	0.224151   
464.500000	0.291901   
465.000000	0.373863   
465.500000	0.307030   
466.000000	0.162621   
466.500000	-0.023219  
467.000000	-0.121219  
467.500000	-0.079136  
468.000000	0.144219   
468.500000	0.215234   
469.000000	0.143750   
469.500000	0.062651   
470.000000	0.168606   
470.500000	0.214613   
471.000000	0.201287   
471.500000	0.075030   
472.000000	0.114060   
472.500000	0.107545   
473.000000	0.179121   
473.500000	0.233848   
474.000000	0.344159   
474.500000	0.369795   
475.000000	0.305795   
475.500000	0.148053   
476.000000	-0.026075  
476.500000	0.032007   
477.000000	0.143363   
477.500000	0.231863   
478.000000	0.131545   
478.500000	0.171750   
479.000000	0.296068   
479.500000	0.376893   
480.000000	0.270348   
480.500000	0.231181   
481.000000	0.276681   
481.500000	0.241462   
482.000000	0.076598   
482.500000	0.017409   
483.000000	0.194303   
483.500000	0.398674   
484.000000	0.445977   
484.500000	0.346621   
485.000000	0.282250   
485.500000	0.263409   
486.000000	0.295462   
486.500000	0.283045   
487.000000	0.308272   
487.500000	0.279871   
488.000000	0.273325   
488.500000	0.251060   
489.000000	0.341651   
489.500000	0.460439   
490.000000	0.567356   
490.500000	0.616212   
491.000000	0.541280   
491.500000	0.440363   
492.000000	0.394893   
492.500000	0.557833   
493.000000	0.599037   
493.500000	0.465068   
494.000000	0.223272   
494.500000	0.228204   
495.000000	0.396924   
495.500000	0.481954   
496.000000	0.368090   
496.500000	0.258734   
497.000000	0.222893   
497.500000	0.313901   
498.000000	0.529568   
498.500000	0.586772   
499.000000	0.443719   
499.500000	0.195833   
500.000000	0.213416   
500.500000	0.414484   
501.000000	0.656333   
501.500000	0.658719   
502.000000	0.690780   
502.500000	0.565893   
503.000000	0.494075   
503.500000	0.411174   
504.000000	0.508742   
504.500000	0.477363   
505.000000	0.526689   
505.500000	0.537431   
506.000000	0.737257   
506.500000	0.889833   
507.000000	1.032075   
507.500000	1.089848   
508.000000	1.094053   
508.500000	0.914742   
509.000000	0.726128   
509.500000	0.697833   
510.000000	0.944969   
510.500000	1.186265   
511.000000	1.282590   
511.500000	1.201681   
512.000000	1.202037   
512.500000	1.128060   
513.000000	1.000537   
513.500000	0.959022   
514.000000	1.144787   
514.500000	1.370333   
515.000000	1.448000   
515.500000	1.445227   
516.000000	1.586545   
516.500000	1.799318   
517.000000	1.911901   
517.500000	1.896196   
518.000000	1.973977   
518.500000	1.986484   
519.000000	1.957265   
519.500000	1.878439   
520.000000	1.997742   
520.500000	2.168984   
521.000000	2.294689   
521.500000	2.340886   
522.000000	2.498113   
522.500000	2.665818   
523.000000	2.739522   
523.500000	2.755757   
524.000000	2.803484   
524.500000	2.875765   
525.000000	2.909030   
525.500000	2.942174   
526.000000	2.998303   
526.500000	3.070068   
527.000000	3.046522   
527.500000	3.084621   
528.000000	3.189159   
528.500000	3.526712   
529.000000	3.751643   
529.500000	3.974484   
530.000000	4.185651   
530.500000	4.468234   
531.000000	4.628439   
531.500000	4.704143   
532.000000	4.751462   
532.500000	5.080689   
533.000000	5.561856   
533.500000	5.977196   
534.000000	6.214196   
534.500000	6.348227   
535.000000	6.416287   
535.500000	6.701037   
536.000000	6.972795   
536.500000	7.349348   
537.000000	7.491621   
537.500000	7.663249   
538.000000	7.908477   
538.500000	8.425727   
539.000000	8.818537   
539.500000	9.202643   
540.000000	9.457098   
540.500000	9.822431   
541.000000	10.187469  
541.500000	10.490719  
542.000000	10.764560  
542.500000	10.886143  
543.000000	11.001265  
543.500000	11.001295  
544.000000	11.254227  
544.500000	11.436939  
545.000000	11.702916  
545.500000	11.651689  
546.000000	11.643272  
546.500000	11.792060  
547.000000	12.039969  
547.500000	12.135371  
548.000000	11.774863  
548.500000	11.626992  
549.000000	11.915378  
549.500000	12.521568  
550.000000	12.778522  
550.500000	13.019060  
551.000000	13.217871  
551.500000	13.269272  
552.000000	12.810977  
552.500000	12.390977  
553.000000	12.292378  
553.500000	12.563984  
554.000000	12.713780  
554.500000	12.782992  
555.000000	12.592007  
555.500000	12.611151  
556.000000	13.088545  
556.500000	13.707606  
557.000000	14.324151  
557.500000	14.693719  
558.000000	14.862121  
558.500000	14.709575  
559.000000	14.709159  
559.500000	15.112196  
560.000000	15.699643  
560.500000	15.853060  
561.000000	16.013098  
561.500000	16.390393  
562.000000	16.894765  
562.500000	17.162113  
563.000000	17.368484  
563.500000	17.871287  
564.000000	18.512765  
564.500000	19.040863  
565.000000	19.274015  
565.500000	19.624401  
566.000000	20.147787  
566.500000	20.910803  
567.000000	21.422742  
567.500000	21.812409  
568.000000	22.334666  
568.500000	22.953484  
569.000000	23.740462  
569.500000	24.459583  
570.000000	25.295560  
570.500000	25.853090  
571.000000	26.340348  
571.500000	26.688848  
572.000000	27.194045  
572.500000	27.920424  
573.000000	28.753446  
573.500000	29.260113  
574.000000	29.622719  
574.500000	30.548530  
575.000000	32.068590  
575.500000	33.371393  
576.000000	33.675371  
576.500000	33.730507  
577.000000	33.854765  
577.500000	33.807348  
578.000000	33.603954  
578.500000	33.779287  
579.000000	34.637310  
579.500000	35.801651  
580.000000	36.586136  
580.500000	37.475318  
581.000000	38.768666  
581.500000	39.969590  
582.000000	40.031598  
582.500000	39.507022  
583.000000	39.344500  
583.500000	40.612280  
584.000000	42.541318  
584.500000	43.927856  
585.000000	44.303893  
585.500000	44.348674  
586.000000	45.367727  
586.500000	47.081659  
587.000000	48.739643  
587.500000	49.334219  
588.000000	49.810643  
588.500000	50.635037  
589.000000	52.096462  
589.500000	53.776628  
590.000000	54.474803  
590.500000	54.556037  
591.000000	55.052909  
591.500000	57.325916  
592.000000	59.830151  
592.500000	61.765424  
593.000000	62.648848  
593.500000	63.686500  
594.000000	64.614250  
594.500000	65.499537  
595.000000	67.042446  
595.500000	69.284325  
596.000000	70.799871  
596.500000	71.579462  
597.000000	72.522090  
597.500000	74.534393  
598.000000	76.152901  
598.500000	77.727992  
599.000000	79.064909  
599.500000	81.056128  
600.000000	82.607265  
600.500000	84.284931  
601.000000	86.149257  
601.500000	88.221242  
602.000000	90.291393  
602.500000	91.229492  
603.000000	91.748151  
603.500000	92.918606  
604.000000	96.029666  
604.500000	98.751424  
605.000000	100.663280 
605.500000	102.385015 
606.000000	104.972575 
606.500000	107.823356 
607.000000	109.690901 
607.500000	110.887325 
608.000000	112.230007 
608.500000	113.752962 
609.000000	115.456689 
609.500000	118.282742 
610.000000	122.221719 
610.500000	125.711075 
611.000000	128.032303 
611.500000	129.560931 
612.000000	131.794492 
612.500000	134.241174 
613.000000	136.397121 
613.500000	139.248628 
614.000000	142.237356 
614.500000	145.885371 
615.000000	149.143628 
615.500000	152.740969 
616.000000	154.370409 
616.500000	156.374166 
617.000000	158.505886 
617.500000	162.384136 
618.000000	166.270893 
618.500000	169.997393 
619.000000	172.581651 
619.500000	174.742015 
620.000000	177.352371 
620.500000	179.870893 
621.000000	182.930204 
621.500000	186.474909 
622.000000	192.063757 
622.500000	197.173818 
623.000000	201.189507 
623.500000	204.188863 
624.000000	206.660568 
624.500000	209.438272 
625.000000	213.277265 
625.500000	218.950257 
626.000000	223.601356 
626.500000	226.815598 
627.000000	228.394037 
627.500000	230.893250 
628.000000	234.405340 
628.500000	239.081409 
629.000000	244.242090 
629.500000	249.514113 
630.000000	254.825242 
630.500000	259.380825 
631.000000	262.579833 
631.500000	265.580651 
632.000000	268.871636 
632.500000	273.433030 
633.000000	278.763439 
633.500000	284.815704 
634.000000	291.007401 
634.500000	295.143492 
635.000000	297.977787 
635.500000	300.305325 
636.000000	303.556522 
636.500000	306.755333 
637.000000	309.688613 
637.500000	312.571166 
638.000000	316.261250 
638.500000	322.574893 
639.000000	328.753204 
639.500000	334.596651 
640.000000	336.414196 
640.500000	337.141628 
641.000000	337.459818 
641.500000	339.020424 
642.000000	340.962462 
642.500000	344.580477 
643.000000	350.289310 
643.500000	354.832704 
644.000000	357.178280 
644.500000	357.784166 
645.000000	360.578984 
645.500000	363.869060 
646.000000	368.311984 
646.500000	369.609568 
647.000000	370.514090 
647.500000	370.444840 
648.000000	373.214651 
648.500000	377.398530 
649.000000	381.615681 
649.500000	382.672424 
650.000000	383.222803 
650.500000	382.743583 
651.000000	383.087227 
651.500000	383.780992 
652.000000	385.820916 
652.500000	387.521356 
653.000000	389.586992 
653.500000	388.788083 
654.000000	387.560280 
654.500000	385.353484 
655.000000	385.435159 
655.500000	386.701636 
656.000000	387.452674 
656.500000	385.325318 
657.000000	383.359704 
657.500000	381.707810 
658.000000	380.881303 
658.500000	378.747742 
659.000000	377.059371 
659.500000	375.999530 
660.000000	375.603643 
660.500000	373.701106 
661.000000	371.071636 
661.500000	368.410068 
662.000000	365.944136 
662.500000	364.085363 
663.000000	361.669424 
663.500000	359.027545 
664.000000	355.558492 
664.500000	350.707560 
665.000000	345.459833 
665.500000	341.057189 
666.000000	337.622143 
666.500000	334.146840 
667.000000	331.124136 
667.500000	327.986840 
668.000000	325.510159 
668.500000	320.878469 
669.000000	316.111386 
669.500000	311.787507 
670.000000	309.079643 
670.500000	305.432136 
671.000000	301.754696 
671.500000	295.851954 
672.000000	289.555628 
672.500000	281.828681 
673.000000	274.717446 
673.500000	268.645901 
674.000000	264.001515 
674.500000	259.786916 
675.000000	253.758628 
675.500000	246.628287 
676.000000	240.252522 
676.500000	236.759318 
677.000000	232.611143 
677.500000	227.424174 
678.000000	221.033090 
678.500000	215.403000 
679.000000	209.770863 
679.500000	203.803924 
680.000000	198.044363 
680.500000	193.543121 
681.000000	189.492727 
681.500000	185.082090 
682.000000	180.351068 
682.500000	175.725060 
683.000000	170.798871 
683.500000	165.574628 
684.000000	159.942924 
684.500000	155.237166 
685.000000	150.598598 
685.500000	146.337893 
686.000000	142.271810 
686.500000	139.277174 
687.000000	135.975318 
687.500000	132.236295 
688.000000	127.562848 
688.500000	123.165916 
689.000000	119.278007 
689.500000	116.222924 
690.000000	113.489515 
690.500000	110.178083 
691.000000	105.936946 
691.500000	101.449939 
692.000000	98.496863  
692.500000	95.740878  
693.000000	93.049325  
693.500000	89.771916  
694.000000	87.940030  
694.500000	85.614863  
695.000000	82.788659  
695.500000	78.647598  
696.000000	75.824977  
696.500000	73.552659  
697.000000	71.636007  
697.500000	69.131159  
698.000000	66.856045  
698.500000	65.346840  
699.000000	63.961310  
699.500000	62.322068  
700.000000	60.416772  
700.500000	58.208462  
701.000000	55.399310  
701.500000	52.961477  
702.000000	51.606863  
702.500000	50.834212  
703.000000	50.232515  
703.500000	48.981613  
704.000000	47.756060  
704.500000	46.425348  
705.000000	45.435325  
705.500000	44.303090  
706.000000	43.335636  
706.500000	42.327719  
707.000000	41.500053  
707.500000	40.109015  
708.000000	38.314098  
708.500000	37.130272  
709.000000	36.724250  
709.500000	35.787484  
710.000000	33.929242  
710.500000	31.952856  
711.000000	30.732757  
711.500000	30.372606  
712.000000	30.009287  
712.500000	29.821136  
713.000000	29.587166  
713.500000	29.342075  
714.000000	28.435606  
714.500000	27.614174  
715.000000	27.042727  
715.500000	26.367537  
716.000000	24.956106  
716.500000	23.382416  
717.000000	22.754712  
717.500000	22.831878  
718.000000	23.084340  
718.500000	22.810416  
719.000000	22.438500  
719.500000	21.832204  
720.000000	21.254159  
720.500000	20.352318  
721.000000	19.588303  
721.500000	19.110992  
722.000000	19.268772  
722.500000	19.089939  
723.000000	18.741219  
723.500000	18.093045  
724.000000	17.865780  
724.500000	17.655174  
725.000000	17.620340  
725.500000	17.327818  
726.000000	16.737856  
726.500000	15.780075  
727.000000	14.788636  
727.500000	14.395621  
728.000000	14.376363  
728.500000	14.483121  
729.000000	13.946446  
729.500000	13.367818  
730.000000	13.160674  
730.500000	13.459878  
731.000000	13.202431  
731.500000	12.339000  
732.000000	11.585325  
732.500000	11.413393  
733.000000	11.653568  
733.500000	11.613825  
734.000000	11.612053  
734.500000	11.692568  
735.000000	11.958583  
735.500000	11.824090  
736.000000	11.447515  
736.500000	10.610916  
737.000000	9.988363   
737.500000	9.532568   
738.000000	9.544681   
738.500000	9.338159   
739.000000	9.105159   
739.500000	8.834651   
740.000000	8.927121   
740.500000	8.824780   
741.000000	8.791871   
741.500000	8.807295   
742.000000	8.864606   
742.500000	8.499946   
743.000000	8.107924   
743.500000	7.996727   
744.000000	8.286560   
744.500000	8.335553   
745.000000	8.166674   
745.500000	7.887825   
746.000000	7.736727   
746.500000	7.628893   
747.000000	7.355522   
747.500000	7.006424   
748.000000	6.665719   
748.500000	6.382848   
749.000000	6.191151   
749.500000	6.229492   
750.000000	6.589946   
750.500000	6.745462   
751.000000	6.729386   
751.500000	6.411484   
752.000000	6.384992   
752.500000	6.365454   
753.000000	6.449477   
753.500000	6.190863   
754.000000	5.738257   
754.500000	5.443409   
755.000000	5.552454   
755.500000	5.908007   
756.000000	5.931242   
756.500000	5.892803   
757.000000	5.691810   
757.500000	5.670363   
758.000000	5.416643   
758.500000	5.416500   
759.000000	5.182537   
759.500000	4.893106   
760.000000	4.642492   
760.500000	4.775537   
761.000000	4.849007   
761.500000	4.752628   
762.000000	4.744045   
762.500000	4.782871   
763.000000	4.778856   
763.500000	4.508371   
764.000000	4.514378   
764.500000	4.641666   
765.000000	4.606916   
765.500000	4.347401   
766.000000	4.370681   
766.500000	4.477007   
767.000000	4.580992   
767.500000	4.595325   
768.000000	4.686803   
768.500000	4.588249   
769.000000	4.244219   
769.500000	3.853689   
770.000000	3.902030   
770.500000	4.172500   
771.000000	4.388856   
771.500000	4.326575   
772.000000	4.051409   
772.500000	3.648712   
773.000000	3.586250   
773.500000	3.800159   
774.000000	3.948984   
774.500000	3.686416   
775.000000	3.416318   
775.500000	3.399606   
776.000000	3.581977   
776.500000	3.530219   
777.000000	3.341310   
777.500000	3.217916   
778.000000	3.236477   
778.500000	3.214159   
779.000000	3.169242   
779.500000	3.126848   
780.000000	3.248962   
780.500000	3.405962   
781.000000	3.502462   
781.500000	3.438621   
782.000000	3.318257   
782.500000	3.202750   
783.000000	3.192136   
783.500000	3.235121   
784.000000	3.206333   
784.500000	3.146265   
785.000000	3.026969   
785.500000	3.046393   
786.000000	3.036681   
786.500000	3.136007   
787.000000	3.111969   
787.500000	3.122318   
788.000000	3.123075   
788.500000	3.146659   
789.000000	3.103219   
789.500000	2.985113   
790.000000	2.996007   
790.500000	2.818219   
791.000000	2.563356   
791.500000	2.217621   
792.000000	2.287696   
792.500000	2.525734   
793.000000	2.820151   
793.500000	2.881007   
794.000000	2.885962   
794.500000	2.807143   
795.000000	2.700333   
795.500000	2.628280   
796.000000	2.620250   
796.500000	2.664681   
797.000000	2.702166   
797.500000	2.579568   
798.000000	2.391151   
798.500000	2.338181   
799.000000	2.423924   
799.500000	2.432166   
800.000000	2.379075   
800.500000	2.445537   
801.000000	2.674727   
801.500000	2.718575   
802.000000	2.383090   
802.500000	2.057583   
803.000000	2.064340   
803.500000	2.377590   
804.000000	2.574681   
804.500000	2.629484   
805.000000	2.517416   
805.500000	2.348000   
806.000000	2.146439   
806.500000	2.134583   
807.000000	2.216909   
807.500000	2.233856   
808.000000	2.129037   
808.500000	1.994886   
809.000000	1.894159   
809.500000	1.881174   
810.000000	1.948090   
810.500000	2.116371   
811.000000	2.244363   
811.500000	2.271166   
812.000000	2.197598   
812.500000	1.945931   
813.000000	1.590507   
813.500000	1.378742   
814.000000	1.469181   
814.500000	1.532704   
815.000000	1.604484   
815.500000	1.696462   
816.000000	1.862530   
816.500000	2.034477   
817.000000	2.030825   
817.500000	2.112242   
818.000000	2.115053   
818.500000	2.282000   
819.000000	2.307515   
819.500000	2.346151   
820.000000	1.901939   
820.500000	1.604803   
821.000000	1.573742   
821.500000	1.991022   
822.000000	2.211659   
822.500000	2.260840   
823.000000	2.272219   
823.500000	2.454227   
824.000000	2.532613   
824.500000	2.583886   
825.000000	2.535750   
825.500000	2.542386   
826.000000	2.415803   
826.500000	2.350825   
827.000000	2.292727   
827.500000	2.241045   
828.000000	2.018106   
828.500000	1.868219   
829.000000	1.863000   
829.500000	1.797977   
830.000000	1.630227   
830.500000	1.487840   
831.000000	1.474992   
831.500000	1.508265   
832.000000	1.509856   
832.500000	1.586204   
833.000000	1.548121   
833.500000	1.325825   
834.000000	1.049909   
834.500000	1.045719   
835.000000	1.051946   
835.500000	0.855416   
836.000000	0.627825   
836.500000	0.684416   
837.000000	0.962272   
837.500000	1.149492   
838.000000	1.150340   
838.500000	1.107848   
839.000000	1.079393   
839.500000	1.023696   
840.000000	0.819522   
840.500000	0.601121   
841.000000	0.389022   
841.500000	0.423666   
842.000000	0.591696   
842.500000	0.924234   
843.000000	0.986787   
843.500000	0.813424   
844.000000	0.440090   
844.500000	0.297643   
845.000000	0.347621   
845.500000	0.497340   
846.000000	0.603659   
846.500000	0.599962   
847.000000	0.460893   
847.500000	0.314212   
848.000000	0.312325   
848.500000	0.357962   
849.000000	0.321674   
849.500000	0.327143   
850.000000	0.344712   
850.500000	0.475272   
851.000000	0.396568   
851.500000	0.257636   
852.000000	0.010083   
852.500000	0.006840   
853.000000	0.067295   
853.500000	0.218719   
854.000000	0.220901   
854.500000	0.136484   
855.000000	0.085893   
855.500000	0.106431   
856.000000	0.199174   
856.500000	0.154757   
857.000000	0.075393   
857.500000	0.019393   
858.000000	0.110772   
858.500000	0.186606   
859.000000	0.208348   
859.500000	0.156825   
860.000000	0.032803   
860.500000	0.000174   
861.000000	0.043757   
861.500000	0.110000   
862.000000	0.025628   
862.500000	-0.059378  
863.000000	-0.085537  
863.500000	-0.011515  
864.000000	0.085553   
864.500000	0.159560   
865.000000	0.169856   
865.500000	0.120931   
866.000000	0.088530   
866.500000	0.046280   
867.000000	0.090659   
867.500000	0.127901   
868.000000	0.135212   
868.500000	0.022575   
869.000000	-0.037015  
869.500000	-0.017378  
870.000000	0.009643   
870.500000	0.043128   
871.000000	0.096166   
871.500000	0.204075   
872.000000	0.162621   
872.500000	0.122083   
873.000000	0.059712   
873.500000	0.112333   
874.000000	0.068249   
874.500000	0.024454   
875.000000	-0.049916  
875.500000	-0.066189  
876.000000	-0.033924  
876.500000	0.016113   
877.000000	0.055583   
877.500000	0.066439   
878.000000	0.011825   
878.500000	-0.157212  
879.000000	-0.215401  
879.500000	-0.130272  
880.000000	0.078689   
880.500000	0.127143   
881.000000	0.095083   
881.500000	0.067522   
882.000000	0.160075   
882.500000	0.141893   
883.000000	0.054893   
883.500000	-0.129446  
884.000000	-0.237333  
884.500000	-0.222446  
885.000000	-0.085772  
885.500000	0.038795   
886.000000	0.106151   
886.500000	0.039727   
887.000000	-0.051113  
887.500000	-0.083886  
888.000000	0.026931   
888.500000	0.126234   
889.000000	0.129310   
889.500000	-0.026401  
890.000000	-0.123575  
890.500000	-0.136515  
891.000000	-0.089348  
891.500000	-0.059628  
892.000000	-0.081083  
892.500000	-0.138727  
893.000000	-0.156984  
893.500000	-0.094954  
894.000000	-0.037795  
894.500000	-0.019856  
895.000000	-0.031318  
895.500000	-0.048075  
896.000000	-0.088560  
896.500000	-0.084810  
897.000000	-0.011439  
897.500000	0.096909   

