PE FL                   SPECTRUM    ASCII       PEDS        1.60        
  -1
SAMPLE~4.SP
24/04/12
16:04:52.00
24/04/12
16:04:52.00
Jan

897.500000
1









LS55
405.00
5.00
5.00
SCAN
1
20
100
100
0
400
0
1
0
1
5
ON
450 405 
1 0 0
#HDR
-1
-1
#GR
NM

0.00002384185791015625
0.0
450.000000
0.500000
896
8
340.717750
-0.366704
#DATA
450.000000	0.442999   
450.500000	0.102409   
451.000000	-0.016075  
451.500000	0.049931   
452.000000	0.201053   
452.500000	0.209818   
453.000000	0.095196   
453.500000	-0.016295  
454.000000	0.028227   
454.500000	0.233946   
455.000000	0.318886   
455.500000	0.276446   
456.000000	0.119598   
456.500000	0.139803   
457.000000	0.148083   
457.500000	0.180810   
458.000000	0.121939   
458.500000	0.114257   
459.000000	0.166159   
459.500000	0.237939   
460.000000	0.275454   
460.500000	0.240234   
461.000000	0.155325   
461.500000	0.023174   
462.000000	0.000621   
462.500000	-0.025666  
463.000000	-0.062143  
463.500000	-0.133462  
464.000000	-0.105318  
464.500000	0.066560   
465.000000	0.214643   
465.500000	0.211227   
466.000000	0.085795   
466.500000	-0.014628  
467.000000	-0.074106  
467.500000	-0.019386  
468.000000	0.070613   
468.500000	0.129416   
469.000000	0.087022   
469.500000	-0.030310  
470.000000	-0.133712  
470.500000	-0.252454  
471.000000	-0.274098  
471.500000	-0.174212  
472.000000	0.111265   
472.500000	0.268272   
473.000000	0.260939   
473.500000	0.001204   
474.000000	-0.179810  
474.500000	-0.366704  
475.000000	-0.256204  
475.500000	-0.138969  
476.000000	0.025659   
476.500000	0.055590   
477.000000	0.145424   
477.500000	0.118348   
478.000000	-0.110901  
478.500000	-0.327977  
479.000000	-0.227628  
479.500000	0.148659   
480.000000	0.320560   
480.500000	0.307378   
481.000000	0.258568   
481.500000	0.275681   
482.000000	0.121159   
482.500000	-0.055901  
483.000000	-0.182500  
483.500000	-0.120446  
484.000000	-0.034507  
484.500000	0.081840   
485.000000	0.219053   
485.500000	0.389878   
486.000000	0.372098   
486.500000	0.213439   
487.000000	0.020234   
487.500000	0.038537   
488.000000	0.240674   
488.500000	0.300204   
489.000000	0.183734   
489.500000	0.112871   
490.000000	0.141590   
490.500000	0.178053   
491.000000	0.139219   
491.500000	0.054984   
492.000000	0.098583   
492.500000	0.242416   
493.000000	0.312295   
493.500000	0.207659   
494.000000	0.076469   
494.500000	0.165704   
495.000000	0.520371   
495.500000	0.663431   
496.000000	0.475393   
496.500000	0.191196   
497.000000	0.064727   
497.500000	0.086295   
498.000000	0.149636   
498.500000	0.212939   
499.000000	0.382500   
499.500000	0.517151   
500.000000	0.493878   
500.500000	0.366090   
501.000000	0.411575   
501.500000	0.652454   
502.000000	0.864757   
502.500000	0.838136   
503.000000	0.724757   
503.500000	0.714969   
504.000000	0.758719   
504.500000	0.829606   
505.000000	0.900113   
505.500000	1.066893   
506.000000	1.071780   
506.500000	0.881484   
507.000000	0.621833   
507.500000	0.697030   
508.000000	0.965901   
508.500000	1.183477   
509.000000	1.080765   
509.500000	0.900030   
510.000000	0.778060   
510.500000	0.840810   
511.000000	0.891568   
511.500000	0.984204   
512.000000	1.070977   
512.500000	1.303075   
513.000000	1.494681   
513.500000	1.652500   
514.000000	1.612901   
514.500000	1.527727   
515.000000	1.449212   
515.500000	1.551500   
516.000000	1.734568   
516.500000	1.794750   
517.000000	1.659030   
517.500000	1.516712   
518.000000	1.517090   
518.500000	1.630757   
519.000000	1.723189   
519.500000	1.774295   
520.000000	1.834340   
520.500000	2.099507   
521.000000	2.375121   
521.500000	2.450598   
522.000000	2.281015   
522.500000	2.248500   
523.000000	2.349537   
523.500000	2.436674   
524.000000	2.452000   
524.500000	2.601575   
525.000000	2.859750   
525.500000	3.007189   
526.000000	3.097242   
526.500000	3.112515   
527.000000	3.110560   
527.500000	3.132659   
528.000000	3.468787   
528.500000	3.826068   
529.000000	4.135977   
529.500000	4.290280   
530.000000	4.512856   
530.500000	4.671530   
531.000000	4.824787   
531.500000	4.922030   
532.000000	4.957257   
532.500000	5.073719   
533.000000	5.283530   
533.500000	5.657954   
534.000000	5.855159   
534.500000	6.184765   
535.000000	6.587007   
535.500000	7.114901   
536.000000	7.425431   
536.500000	7.521803   
537.000000	7.552825   
537.500000	7.708719   
538.000000	8.165583   
538.500000	8.592515   
539.000000	8.900962   
539.500000	9.102303   
540.000000	9.394727   
540.500000	9.671272   
541.000000	10.084287  
541.500000	10.695924  
542.000000	11.177787  
542.500000	11.331409  
543.000000	11.338643  
543.500000	11.459727  
544.000000	11.631393  
544.500000	11.793219  
545.000000	11.817053  
545.500000	11.698977  
546.000000	11.367128  
546.500000	11.188787  
547.000000	11.334765  
547.500000	11.646515  
548.000000	11.971598  
548.500000	12.107909  
549.000000	12.081371  
549.500000	11.919969  
550.000000	12.137636  
550.500000	12.394287  
551.000000	12.676863  
551.500000	12.651295  
552.000000	12.573272  
552.500000	12.407575  
553.000000	12.229962  
553.500000	11.972893  
554.000000	11.976287  
554.500000	12.308568  
555.000000	12.915409  
555.500000	13.415492  
556.000000	13.458378  
556.500000	13.271840  
557.000000	13.154113  
557.500000	13.375265  
558.000000	13.795462  
558.500000	14.409886  
559.000000	14.673022  
559.500000	14.778537  
560.000000	14.606696  
560.500000	15.042962  
561.000000	15.659075  
561.500000	16.182636  
562.000000	15.997757  
562.500000	16.036924  
563.000000	16.305750  
563.500000	16.998060  
564.000000	17.589340  
564.500000	18.329787  
565.000000	18.968621  
565.500000	19.517348  
566.000000	19.905674  
566.500000	20.567507  
567.000000	21.310371  
567.500000	21.941204  
568.000000	22.531272  
568.500000	23.370863  
569.000000	24.221833  
569.500000	24.642242  
570.000000	24.410606  
570.500000	24.479007  
571.000000	25.221734  
571.500000	26.467469  
572.000000	27.245984  
572.500000	27.649787  
573.000000	27.716318  
573.500000	28.018356  
574.000000	28.209833  
574.500000	28.341553  
575.000000	28.760560  
575.500000	29.665242  
576.000000	30.815636  
576.500000	31.203265  
577.000000	31.331037  
577.500000	31.679606  
578.000000	32.936053  
578.500000	33.946757  
579.000000	34.647545  
579.500000	35.024856  
580.000000	35.295068  
580.500000	35.689083  
581.000000	36.122227  
581.500000	36.744378  
582.000000	37.025886  
582.500000	37.856962  
583.000000	38.650530  
583.500000	39.459454  
584.000000	39.598219  
584.500000	40.355143  
585.000000	41.941295  
585.500000	43.641742  
586.000000	44.294287  
586.500000	44.440530  
587.000000	45.024083  
587.500000	46.500424  
588.000000	47.916265  
588.500000	48.822681  
589.000000	49.547613  
589.500000	51.018719  
590.000000	52.328719  
590.500000	53.409583  
591.000000	54.068507  
591.500000	54.815227  
592.000000	55.358818  
592.500000	56.655727  
593.000000	58.028151  
593.500000	59.171954  
594.000000	59.940742  
594.500000	61.495537  
595.000000	63.053500  
595.500000	64.223037  
596.000000	64.972803  
596.500000	67.396037  
597.000000	69.984128  
597.500000	71.902325  
598.000000	71.991446  
598.500000	72.330977  
599.000000	72.995136  
599.500000	74.883136  
600.000000	76.812863  
600.500000	79.088659  
601.000000	80.475007  
601.500000	81.263924  
602.000000	81.598242  
602.500000	83.368166  
603.000000	85.668780  
603.500000	87.804787  
604.000000	88.969469  
604.500000	90.029181  
605.000000	91.319924  
605.500000	93.358212  
606.000000	95.635249  
606.500000	98.587780  
607.000000	101.288143 
607.500000	103.270621 
608.000000	104.679992 
608.500000	106.518106 
609.000000	108.658984 
609.500000	111.067113 
610.000000	112.614303 
610.500000	113.920159 
611.000000	115.873446 
611.500000	118.881204 
612.000000	122.209280 
612.500000	125.408954 
613.000000	128.048643 
613.500000	130.315878 
614.000000	131.421522 
614.500000	132.790037 
615.000000	135.003583 
615.500000	138.288954 
616.000000	140.810537 
616.500000	143.698037 
617.000000	146.432333 
617.500000	149.243636 
618.000000	151.338674 
618.500000	154.077863 
619.000000	156.584189 
619.500000	159.005090 
620.000000	161.231780 
620.500000	164.737545 
621.000000	169.531265 
621.500000	174.060636 
622.000000	177.338568 
622.500000	179.617795 
623.000000	182.815916 
623.500000	186.998045 
624.000000	190.197833 
624.500000	192.515621 
625.000000	195.038651 
625.500000	198.394727 
626.000000	201.117022 
626.500000	204.781507 
627.000000	209.805500 
627.500000	215.128363 
628.000000	218.651053 
628.500000	221.220962 
629.000000	224.701931 
629.500000	227.722772 
630.000000	232.172068 
630.500000	237.053159 
631.000000	242.797689 
631.500000	246.141416 
632.000000	248.103825 
632.500000	249.854795 
633.000000	253.272409 
633.500000	257.526674 
634.000000	261.219053 
634.500000	265.105636 
635.000000	267.777818 
635.500000	271.439181 
636.000000	273.637545 
636.500000	277.576045 
637.000000	281.205924 
637.500000	286.160878 
638.000000	288.621537 
638.500000	291.786507 
639.000000	294.019469 
639.500000	297.427500 
640.000000	299.928666 
640.500000	302.755318 
641.000000	304.987007 
641.500000	308.160007 
642.000000	311.543462 
642.500000	313.539318 
643.000000	314.588643 
643.500000	315.528098 
644.000000	317.815007 
644.500000	321.303159 
645.000000	324.375704 
645.500000	326.449500 
646.000000	327.700424 
646.500000	330.241871 
647.000000	333.030151 
647.500000	335.701325 
648.000000	335.337734 
648.500000	337.168909 
649.000000	339.151378 
649.500000	340.690727 
650.000000	338.317537 
650.500000	337.661318 
651.000000	337.963984 
651.500000	339.609053 
652.000000	338.683219 
652.500000	339.104340 
653.000000	339.991977 
653.500000	340.717750 
654.000000	339.291143 
654.500000	338.470469 
655.000000	338.768787 
655.500000	339.006143 
656.000000	337.970651 
656.500000	336.225363 
657.000000	334.622931 
657.500000	333.228159 
658.000000	332.603143 
658.500000	332.868098 
659.000000	332.606022 
659.500000	330.293848 
660.000000	326.512901 
660.500000	322.874803 
661.000000	320.068977 
661.500000	317.731651 
662.000000	315.882356 
662.500000	314.742030 
663.000000	312.784098 
663.500000	308.856106 
664.000000	305.184651 
664.500000	301.969689 
665.000000	299.079674 
665.500000	295.396772 
666.000000	292.657090 
666.500000	289.408704 
667.000000	284.979613 
667.500000	279.203446 
668.000000	274.657863 
668.500000	270.258484 
669.000000	265.265295 
669.500000	260.792636 
670.000000	257.663575 
670.500000	253.391772 
671.000000	248.360962 
671.500000	243.389159 
672.000000	239.756704 
672.500000	234.543007 
673.000000	228.946219 
673.500000	222.769356 
674.000000	218.473136 
674.500000	213.532840 
675.000000	209.041924 
675.500000	204.538431 
676.000000	200.345863 
676.500000	195.943174 
677.000000	191.636212 
677.500000	186.327393 
678.000000	180.341750 
678.500000	174.308136 
679.000000	168.448825 
679.500000	163.177553 
680.000000	158.505666 
680.500000	155.176712 
681.000000	151.844833 
681.500000	147.197795 
682.000000	141.518083 
682.500000	137.120659 
683.000000	133.533696 
683.500000	130.275742 
684.000000	126.272371 
684.500000	122.135984 
685.000000	118.461515 
685.500000	115.758242 
686.000000	113.139045 
686.500000	109.616303 
687.000000	105.942075 
687.500000	102.305621 
688.000000	99.298810  
688.500000	96.250446  
689.000000	94.061015  
689.500000	91.522954  
690.000000	88.924250  
690.500000	86.377856  
691.000000	84.261825  
691.500000	81.644893  
692.000000	78.448227  
692.500000	75.884340  
693.000000	73.827204  
693.500000	71.858128  
694.000000	69.125068  
694.500000	66.756840  
695.000000	64.592128  
695.500000	62.980606  
696.000000	60.887356  
696.500000	58.807075  
697.000000	56.278954  
697.500000	54.189295  
698.000000	52.550204  
698.500000	52.307537  
699.000000	52.279916  
699.500000	51.056303  
700.000000	48.603439  
700.500000	46.098651  
701.000000	44.495121  
701.500000	43.081530  
702.000000	42.133742  
702.500000	41.030090  
703.000000	39.983234  
703.500000	38.487280  
704.000000	37.238530  
704.500000	36.119090  
705.000000	35.108015  
705.500000	34.327833  
706.000000	33.676325  
706.500000	33.246613  
707.000000	32.351303  
707.500000	31.670727  
708.000000	30.590628  
708.500000	29.710121  
709.000000	28.779666  
709.500000	28.283590  
710.000000	27.458689  
710.500000	26.460265  
711.000000	25.433075  
711.500000	25.097878  
712.000000	25.073848  
712.500000	25.086825  
713.000000	24.711954  
713.500000	24.356098  
714.000000	23.493181  
714.500000	22.606719  
715.000000	21.286909  
715.500000	20.369015  
716.000000	19.798075  
716.500000	19.725757  
717.000000	19.470863  
717.500000	19.178325  
718.000000	19.232833  
718.500000	19.140681  
719.000000	18.438022  
719.500000	17.256409  
720.000000	16.674795  
720.500000	16.627803  
721.000000	16.634712  
721.500000	16.083272  
722.000000	15.343939  
722.500000	15.108310  
723.000000	15.014007  
723.500000	14.904128  
724.000000	14.215325  
724.500000	13.803318  
725.000000	13.529613  
725.500000	13.500962  
726.000000	13.069909  
726.500000	12.856856  
727.000000	12.523303  
727.500000	12.339704  
728.000000	12.378242  
728.500000	12.418325  
729.000000	12.094727  
729.500000	11.385772  
730.000000	11.039787  
730.500000	10.913189  
731.000000	11.101924  
731.500000	11.071704  
732.000000	11.423969  
732.500000	11.405924  
733.000000	10.912219  
733.500000	9.891954   
734.000000	9.066954   
734.500000	8.656863   
735.000000	8.702325   
735.500000	8.960227   
736.000000	9.117946   
736.500000	8.981249   
737.000000	8.660651   
737.500000	8.252575   
738.000000	7.984931   
738.500000	7.750598   
739.000000	7.914734   
739.500000	8.131439   
740.000000	8.231977   
740.500000	7.903977   
741.000000	7.638037   
741.500000	7.530219   
742.000000	7.579530   
742.500000	7.506166   
743.000000	7.301871   
743.500000	7.038219   
744.000000	6.949825   
744.500000	7.004833   
745.000000	6.992810   
745.500000	6.784606   
746.000000	6.485681   
746.500000	6.547537   
747.000000	6.855378   
747.500000	7.221393   
748.000000	7.203500   
748.500000	6.879750   
749.000000	6.427553   
749.500000	6.188363   
750.000000	6.051136   
750.500000	5.824734   
751.000000	5.586325   
751.500000	5.535295   
752.000000	5.524689   
752.500000	5.537477   
753.000000	5.568962   
753.500000	5.871704   
754.000000	6.077121   
754.500000	5.921696   
755.000000	5.426984   
755.500000	5.001287   
756.000000	4.756803   
756.500000	4.679060   
757.000000	4.913628   
757.500000	5.231659   
758.000000	5.598606   
758.500000	5.523022   
759.000000	5.337856   
759.500000	5.034015   
760.000000	4.898681   
760.500000	4.571780   
761.000000	4.392833   
761.500000	4.377954   
762.000000	4.588007   
762.500000	4.663674   
763.000000	4.582515   
763.500000	4.648409   
764.000000	4.969719   
764.500000	5.131924   
765.000000	4.896439   
765.500000	4.439250   
766.000000	4.266174   
766.500000	4.202537   
767.000000	4.133424   
767.500000	3.850939   
768.000000	3.835984   
768.500000	3.970674   
769.000000	4.141242   
769.500000	4.121325   
770.000000	4.013113   
770.500000	3.853318   
771.000000	3.715522   
771.500000	3.498439   
772.000000	3.341030   
772.500000	3.271159   
773.000000	3.382560   
773.500000	3.510113   
774.000000	3.560037   
774.500000	3.676022   
775.000000	3.789431   
775.500000	3.868136   
776.000000	3.666583   
776.500000	3.460878   
777.000000	3.302515   
777.500000	3.364113   
778.000000	3.414068   
778.500000	3.376045   
779.000000	3.228409   
779.500000	3.094712   
780.000000	3.061181   
780.500000	3.110590   
781.000000	3.214931   
781.500000	3.272742   
782.000000	3.130356   
782.500000	2.968272   
783.000000	2.872666   
783.500000	3.037212   
784.000000	3.151136   
784.500000	3.179606   
785.000000	3.017363   
785.500000	2.877060   
786.000000	2.826848   
786.500000	2.977287   
787.000000	3.128840   
787.500000	3.202613   
788.000000	3.102492   
788.500000	2.985219   
789.000000	2.908227   
789.500000	2.901825   
790.000000	2.875833   
790.500000	2.928696   
791.000000	2.997333   
791.500000	2.973401   
792.000000	2.874712   
792.500000	2.773386   
793.000000	2.771575   
793.500000	2.740318   
794.000000	2.580886   
794.500000	2.522121   
795.000000	2.585303   
795.500000	2.770598   
796.000000	2.559787   
796.500000	2.369954   
797.000000	2.197424   
797.500000	2.496212   
798.000000	2.652265   
798.500000	2.639772   
799.000000	2.381090   
799.500000	2.322537   
800.000000	2.316204   
800.500000	2.290977   
801.000000	2.189106   
801.500000	2.178946   
802.000000	2.251393   
802.500000	2.266333   
803.000000	2.190681   
803.500000	2.198015   
804.000000	2.219765   
804.500000	2.277856   
805.000000	2.196909   
805.500000	2.011234   
806.000000	1.738242   
806.500000	1.733924   
807.000000	1.773204   
807.500000	1.921621   
808.000000	1.965030   
808.500000	1.961621   
809.000000	1.880469   
809.500000	1.808689   
810.000000	1.885454   
810.500000	1.906560   
811.000000	1.731007   
811.500000	1.399689   
812.000000	1.363098   
812.500000	1.376424   
813.000000	1.559893   
813.500000	1.604750   
814.000000	1.719219   
814.500000	1.726878   
815.000000	1.742068   
815.500000	1.509090   
816.000000	1.394651   
816.500000	1.374340   
817.000000	1.680909   
817.500000	1.926681   
818.000000	1.841333   
818.500000	1.602780   
819.000000	1.459575   
819.500000	1.608227   
820.000000	1.832386   
820.500000	1.963992   
821.000000	1.995606   
821.500000	2.099719   
822.000000	2.288977   
822.500000	2.381500   
823.000000	2.418454   
823.500000	2.415674   
824.000000	2.448696   
824.500000	2.494075   
825.000000	2.436742   
825.500000	2.417871   
826.000000	2.342477   
826.500000	2.230598   
827.000000	1.934439   
827.500000	1.742696   
828.000000	1.764530   
828.500000	1.884787   
829.000000	1.841219   
829.500000	1.554992   
830.000000	1.351424   
830.500000	1.318689   
831.000000	1.355606   
831.500000	1.342863   
832.000000	1.270325   
832.500000	1.119454   
833.000000	0.975015   
833.500000	0.901098   
834.000000	0.946477   
834.500000	1.001136   
835.000000	1.025840   
835.500000	0.937151   
836.000000	0.866704   
836.500000	0.845560   
837.000000	0.918681   
837.500000	1.058060   
838.000000	1.159159   
838.500000	1.165689   
839.000000	1.025295   
839.500000	0.886575   
840.000000	0.909007   
840.500000	1.003924   
841.000000	0.958787   
841.500000	0.769257   
842.000000	0.560424   
842.500000	0.498651   
843.000000	0.486643   
843.500000	0.540810   
844.000000	0.650924   
844.500000	0.649462   
845.000000	0.541075   
845.500000	0.476825   
846.000000	0.559212   
846.500000	0.580825   
847.000000	0.505181   
847.500000	0.384901   
848.000000	0.371659   
848.500000	0.391765   
849.000000	0.329863   
849.500000	0.241628   
850.000000	0.191704   
850.500000	0.272477   
851.000000	0.372007   
851.500000	0.373181   
852.000000	0.275000   
852.500000	0.108931   
853.000000	-0.018628  
853.500000	-0.071181  
854.000000	0.034787   
854.500000	0.149250   
855.000000	0.264719   
855.500000	0.291856   
856.000000	0.316333   
856.500000	0.238287   
857.000000	0.169810   
857.500000	0.186742   
858.000000	0.172227   
858.500000	0.120196   
859.000000	0.029083   
859.500000	-0.002575  
860.000000	-0.029689  
860.500000	0.020060   
861.000000	0.142083   
861.500000	0.260787   
862.000000	0.383469   
862.500000	0.300159   
863.000000	0.185318   
863.500000	-0.046651  
864.000000	-0.056439  
864.500000	0.052583   
865.000000	0.178159   
865.500000	0.118962   
866.000000	-0.036598  
866.500000	-0.111568  
867.000000	-0.067628  
867.500000	0.042015   
868.000000	0.064621   
868.500000	0.038598   
869.000000	0.008234   
869.500000	0.027075   
870.000000	0.046984   
870.500000	0.141810   
871.000000	0.209181   
871.500000	0.233598   
872.000000	0.091333   
872.500000	-0.110030  
873.000000	-0.213598  
873.500000	-0.129840  
874.000000	0.006954   
874.500000	0.023969   
875.000000	0.000393   
875.500000	0.000356   
876.000000	0.046000   
876.500000	0.061234   
877.000000	0.040492   
877.500000	0.022977   
878.000000	-0.052931  
878.500000	-0.010689  
879.000000	0.083931   
879.500000	0.171219   
880.000000	0.038439   
880.500000	-0.127537  
881.000000	-0.190462  
881.500000	-0.157969  
882.000000	-0.064704  
882.500000	-0.073181  
883.000000	-0.111931  
883.500000	-0.183931  
884.000000	-0.130545  
884.500000	-0.083666  
885.000000	-0.042007  
885.500000	-0.069462  
886.000000	-0.001984  
886.500000	0.056515   
887.000000	0.033136   
887.500000	0.016015   
888.000000	0.031765   
888.500000	0.065901   
889.000000	0.058916   
889.500000	-0.019954  
890.000000	-0.191492  
890.500000	-0.345090  
891.000000	-0.361477  
891.500000	-0.213507  
892.000000	-0.045787  
892.500000	0.025416   
893.000000	0.094537   
893.500000	0.119560   
894.000000	0.030613   
894.500000	-0.147803  
895.000000	-0.216416  
895.500000	-0.179598  
896.000000	-0.101537  
896.500000	-0.068492  
897.000000	-0.055992  
897.500000	-0.014075  

