PE FL                   SPECTRUM    ASCII       PEDS        1.60        
  -1
SA8B81~1.SP
24/04/12
15:17:48.00
24/04/12
15:17:48.00
Jan

897.500000
1









LS55
405.00
5.00
5.00
SCAN
1
20
100
100
0
400
0
1
0
1
5
ON
450 405 
1 0 0
#HDR
-1
-1
#GR
NM

0.00002384185791015625
0.0
450.000000
0.500000
896
8
405.688681
-0.331386
#DATA
450.000000	0.676999   
450.500000	0.057492   
451.000000	-0.187712  
451.500000	-0.131075  
452.000000	-0.022219  
452.500000	-0.023037  
453.000000	0.004613   
453.500000	0.075378   
454.000000	0.055674   
454.500000	-0.001780  
455.000000	-0.011939  
455.500000	0.152651   
456.000000	0.246712   
456.500000	0.332666   
457.000000	0.248477   
457.500000	0.170060   
458.000000	0.021280   
458.500000	-0.103575  
459.000000	-0.194431  
459.500000	-0.238075  
460.000000	-0.185393  
460.500000	-0.046787  
461.000000	0.109227   
461.500000	0.191257   
462.000000	0.118287   
462.500000	0.041840   
463.000000	-0.069856  
463.500000	0.048363   
464.000000	0.204742   
464.500000	0.458946   
465.000000	0.500477   
465.500000	0.473537   
466.000000	0.412757   
466.500000	0.437992   
467.000000	0.435484   
467.500000	0.344030   
468.000000	0.292401   
468.500000	0.365795   
469.000000	0.446310   
469.500000	0.345749   
470.000000	0.065409   
470.500000	-0.235363  
471.000000	-0.331386  
471.500000	-0.184553  
472.000000	0.004212   
472.500000	0.244537   
473.000000	0.378750   
473.500000	0.379015   
474.000000	0.225007   
474.500000	0.050878   
475.000000	-0.061257  
475.500000	0.014795   
476.000000	0.172780   
476.500000	0.303409   
477.000000	0.247825   
477.500000	0.043818   
478.000000	-0.020128  
478.500000	0.044803   
479.000000	0.144106   
479.500000	0.128098   
480.000000	0.073621   
480.500000	0.061075   
481.000000	0.136227   
481.500000	0.223696   
482.000000	0.305954   
482.500000	0.278931   
483.000000	0.144984   
483.500000	0.003325   
484.000000	0.056818   
484.500000	0.142666   
485.000000	0.255348   
485.500000	0.180189   
486.000000	0.184977   
486.500000	0.086401   
487.000000	0.070954   
487.500000	0.028545   
488.000000	0.281962   
488.500000	0.490272   
489.000000	0.553863   
489.500000	0.349795   
490.000000	0.284106   
490.500000	0.314439   
491.000000	0.441106   
491.500000	0.502424   
492.000000	0.639053   
492.500000	0.674916   
493.000000	0.662954   
493.500000	0.653060   
494.000000	0.696219   
494.500000	0.594613   
495.000000	0.362560   
495.500000	0.271416   
496.000000	0.361196   
496.500000	0.448727   
497.000000	0.447143   
497.500000	0.481992   
498.000000	0.496537   
498.500000	0.498143   
499.000000	0.480151   
499.500000	0.635886   
500.000000	0.762295   
500.500000	0.773462   
501.000000	0.608378   
501.500000	0.533401   
502.000000	0.467780   
502.500000	0.358575   
503.000000	0.282492   
503.500000	0.375651   
504.000000	0.609212   
504.500000	0.717704   
505.000000	0.709469   
505.500000	0.630409   
506.000000	0.597515   
506.500000	0.624159   
507.000000	0.729992   
507.500000	0.887674   
508.000000	0.845772   
508.500000	0.790704   
509.000000	0.790113   
509.500000	0.967037   
510.000000	1.063939   
510.500000	1.077568   
511.000000	1.003954   
511.500000	1.015015   
512.000000	1.086727   
512.500000	1.213310   
513.000000	1.330484   
513.500000	1.364272   
514.000000	1.382075   
514.500000	1.419674   
515.000000	1.415477   
515.500000	1.423500   
516.000000	1.441621   
516.500000	1.616128   
517.000000	1.705931   
517.500000	1.848000   
518.000000	1.884871   
518.500000	2.009325   
519.000000	1.980212   
519.500000	2.074174   
520.000000	2.351128   
520.500000	2.609893   
521.000000	2.538840   
521.500000	2.192939   
522.000000	2.130234   
522.500000	2.333310   
523.000000	2.652242   
523.500000	2.769431   
524.000000	2.874719   
524.500000	2.990416   
525.000000	3.066378   
525.500000	2.975803   
526.000000	2.903886   
526.500000	3.039742   
527.000000	3.403757   
527.500000	3.731962   
528.000000	3.930106   
528.500000	3.892803   
529.000000	3.969765   
529.500000	4.136098   
530.000000	4.506030   
530.500000	4.569537   
531.000000	4.561659   
531.500000	4.512522   
532.000000	4.721212   
532.500000	4.882462   
533.000000	5.215174   
533.500000	5.707060   
534.000000	6.463280   
534.500000	6.745757   
535.000000	6.749015   
535.500000	6.638409   
536.000000	6.939734   
536.500000	7.098462   
537.000000	7.366196   
537.500000	7.559681   
538.000000	8.038242   
538.500000	8.485537   
539.000000	9.004181   
539.500000	9.623515   
540.000000	10.140272  
540.500000	10.654984  
541.000000	10.875446  
541.500000	10.852053  
542.000000	10.716424  
542.500000	11.054553  
543.000000	11.741780  
543.500000	12.179060  
544.000000	12.205280  
544.500000	12.127424  
545.000000	12.233962  
545.500000	12.108878  
546.000000	11.795696  
546.500000	11.859242  
547.000000	12.283537  
547.500000	12.820416  
548.000000	13.155825  
548.500000	13.413257  
549.000000	13.424681  
549.500000	13.166765  
550.000000	12.764128  
550.500000	12.809265  
551.000000	13.258227  
551.500000	13.710310  
552.000000	13.740143  
552.500000	13.581272  
553.000000	13.579727  
553.500000	13.776265  
554.000000	13.698219  
554.500000	13.393295  
555.000000	13.498439  
555.500000	14.039340  
556.000000	14.674734  
556.500000	14.761181  
557.000000	14.978068  
557.500000	15.354196  
558.000000	15.719272  
558.500000	15.655348  
559.000000	15.638924  
559.500000	15.951886  
560.000000	16.534689  
560.500000	16.814446  
561.000000	16.761469  
561.500000	16.799901  
562.000000	17.284795  
562.500000	18.048393  
563.000000	18.878030  
563.500000	19.467787  
564.000000	20.098659  
564.500000	20.396143  
565.000000	20.552522  
565.500000	20.893984  
566.000000	21.618803  
566.500000	22.404795  
567.000000	22.806356  
567.500000	23.361606  
568.000000	24.058265  
568.500000	25.106500  
569.000000	25.600984  
569.500000	26.339545  
570.000000	26.538181  
570.500000	27.001098  
571.000000	27.335234  
571.500000	28.418522  
572.000000	29.637696  
572.500000	30.857431  
573.000000	31.451250  
573.500000	31.652916  
574.000000	32.065075  
574.500000	32.738530  
575.000000	33.878500  
575.500000	34.392878  
576.000000	34.415886  
576.500000	34.494840  
577.000000	34.986719  
577.500000	35.512803  
578.000000	35.963280  
578.500000	36.574340  
579.000000	37.589416  
579.500000	38.627007  
580.000000	39.456454  
580.500000	39.710340  
581.000000	40.021060  
581.500000	40.335416  
582.000000	41.608780  
582.500000	43.182696  
583.000000	45.064795  
583.500000	46.322325  
584.000000	46.548136  
584.500000	46.586000  
585.000000	46.695090  
585.500000	47.577931  
586.000000	48.559522  
586.500000	49.886121  
587.000000	50.911363  
587.500000	52.116871  
588.000000	53.393113  
588.500000	55.307893  
589.000000	57.492909  
589.500000	59.320227  
590.000000	60.292954  
590.500000	60.399537  
591.000000	60.682765  
591.500000	62.421924  
592.000000	64.762946  
592.500000	66.912250  
593.000000	68.302992  
593.500000	70.144106  
594.000000	71.163015  
594.500000	71.969765  
595.000000	72.885749  
595.500000	75.309219  
596.000000	77.238666  
596.500000	78.596628  
597.000000	79.484931  
597.500000	81.170037  
598.000000	83.427666  
598.500000	85.114272  
599.000000	86.367810  
599.500000	87.076621  
600.000000	89.088068  
600.500000	92.054878  
601.000000	95.275022  
601.500000	96.651810  
602.000000	97.251007  
602.500000	98.354863  
603.000000	100.629795 
603.500000	103.232416 
604.000000	104.779878 
604.500000	105.899037 
605.000000	107.534757 
605.500000	110.309053 
606.000000	113.307500 
606.500000	115.620121 
607.000000	117.007325 
607.500000	118.515439 
608.000000	121.717340 
608.500000	125.352469 
609.000000	128.517651 
609.500000	130.730310 
610.000000	134.164393 
610.500000	136.785727 
611.000000	138.126621 
611.500000	137.981893 
612.000000	140.192022 
612.500000	143.735257 
613.000000	147.429075 
613.500000	150.369371 
614.000000	153.665431 
614.500000	158.261166 
615.000000	161.837696 
615.500000	164.649545 
616.000000	165.458356 
616.500000	167.733181 
617.000000	170.272212 
617.500000	173.866257 
618.000000	177.430803 
618.500000	182.062075 
619.000000	186.078227 
619.500000	189.626272 
620.000000	192.240136 
620.500000	195.110492 
621.000000	198.291712 
621.500000	202.363371 
622.000000	206.860007 
622.500000	210.767439 
623.000000	214.067871 
623.500000	217.425924 
624.000000	221.774750 
624.500000	225.833340 
625.000000	229.216931 
625.500000	231.403681 
626.000000	232.980803 
626.500000	236.315106 
627.000000	241.677356 
627.500000	248.077651 
628.000000	252.522681 
628.500000	255.271227 
629.000000	257.692992 
629.500000	262.053840 
630.000000	267.681992 
630.500000	273.662462 
631.000000	279.607083 
631.500000	283.706628 
632.000000	286.020325 
632.500000	289.987909 
633.000000	296.232090 
633.500000	303.478265 
634.000000	305.598992 
634.500000	306.882674 
635.000000	309.049856 
635.500000	314.764568 
636.000000	317.405280 
636.500000	320.787257 
637.000000	323.516204 
637.500000	329.060901 
638.000000	332.838234 
638.500000	337.099446 
639.000000	340.888833 
639.500000	345.728000 
640.000000	350.345030 
640.500000	355.823848 
641.000000	359.053833 
641.500000	360.575310 
642.000000	360.839984 
642.500000	364.315000 
643.000000	367.969265 
643.500000	370.454969 
644.000000	370.060969 
644.500000	371.960106 
645.000000	376.588212 
645.500000	383.014068 
646.000000	386.533871 
646.500000	387.014659 
647.000000	386.875522 
647.500000	387.446931 
648.000000	389.093575 
648.500000	390.436068 
649.000000	392.578704 
649.500000	395.198166 
650.000000	397.001015 
650.500000	395.339075 
651.000000	393.344848 
651.500000	393.599431 
652.000000	396.958469 
652.500000	399.519378 
653.000000	399.641856 
653.500000	398.541030 
654.000000	397.951068 
654.500000	399.639499 
655.000000	402.810537 
655.500000	405.638871 
656.000000	405.688681 
656.500000	402.043659 
657.000000	397.483992 
657.500000	393.178310 
658.000000	390.748931 
658.500000	387.750651 
659.000000	386.285068 
659.500000	385.467719 
660.000000	387.782068 
660.500000	387.396000 
661.000000	384.613787 
661.500000	380.083431 
662.000000	377.731053 
662.500000	376.027250 
663.000000	374.265840 
663.500000	370.393931 
664.000000	365.400113 
664.500000	361.102098 
665.000000	358.331901 
665.500000	357.476909 
666.000000	354.575477 
666.500000	350.887666 
667.000000	345.474530 
667.500000	342.085037 
668.000000	338.252954 
668.500000	335.775765 
669.000000	331.449984 
669.500000	327.401886 
670.000000	320.992780 
670.500000	315.883060 
671.000000	310.959166 
671.500000	307.657212 
672.000000	302.420969 
672.500000	297.092287 
673.000000	291.756712 
673.500000	288.158393 
674.000000	283.551469 
674.500000	276.964090 
675.000000	269.687356 
675.500000	263.958522 
676.000000	259.989553 
676.500000	255.841946 
677.000000	250.550166 
677.500000	244.557628 
678.000000	238.584401 
678.500000	233.146416 
679.000000	227.983386 
679.500000	223.441962 
680.000000	219.085378 
680.500000	214.408704 
681.000000	208.478886 
681.500000	201.405962 
682.000000	194.783621 
682.500000	189.342356 
683.000000	185.168916 
683.500000	180.918696 
684.000000	176.219265 
684.500000	171.122484 
685.000000	166.499696 
685.500000	162.597878 
686.000000	158.633666 
686.500000	154.387409 
687.000000	150.169901 
687.500000	146.311765 
688.000000	142.435121 
688.500000	137.821848 
689.000000	133.074545 
689.500000	128.069045 
690.000000	123.619500 
690.500000	119.845568 
691.000000	116.467621 
691.500000	112.429901 
692.000000	107.929212 
692.500000	103.962886 
693.000000	101.105219 
693.500000	99.440477  
694.000000	97.319454  
694.500000	94.756757  
695.000000	91.507901  
695.500000	88.672151  
696.000000	85.501265  
696.500000	83.113219  
697.000000	80.793227  
697.500000	79.049909  
698.000000	76.713484  
698.500000	74.960931  
699.000000	72.592696  
699.500000	69.571128  
700.000000	65.861090  
700.500000	63.536992  
701.000000	62.896083  
701.500000	62.264060  
702.000000	60.421121  
702.500000	57.827795  
703.000000	55.856053  
703.500000	54.681818  
704.000000	53.876424  
704.500000	52.241977  
705.000000	50.446780  
705.500000	48.753969  
706.000000	47.407015  
706.500000	46.616159  
707.000000	45.975757  
707.500000	45.232530  
708.000000	43.349401  
708.500000	41.986863  
709.000000	40.684507  
709.500000	39.756401  
710.000000	37.950068  
710.500000	36.719484  
711.000000	35.708090  
711.500000	34.798628  
712.000000	33.782113  
712.500000	33.402636  
713.000000	33.069818  
713.500000	32.356280  
714.000000	31.454295  
714.500000	30.671166  
715.000000	29.753106  
715.500000	29.034515  
716.000000	28.314318  
716.500000	27.647621  
717.000000	26.334810  
717.500000	25.171416  
718.000000	24.616204  
718.500000	24.335598  
719.000000	23.555522  
719.500000	22.738265  
720.000000	22.060977  
720.500000	22.000530  
721.000000	21.713363  
721.500000	21.083477  
722.000000	20.126037  
722.500000	19.472234  
723.000000	19.076939  
723.500000	18.934696  
724.000000	18.654530  
724.500000	18.212348  
725.000000	17.991765  
725.500000	17.900946  
726.000000	17.973621  
726.500000	17.824553  
727.000000	17.533136  
727.500000	17.117106  
728.000000	16.504227  
728.500000	15.759924  
729.000000	15.063500  
729.500000	14.703772  
730.000000	14.555590  
730.500000	14.362772  
731.000000	14.099333  
731.500000	13.639659  
732.000000	13.364825  
732.500000	13.012189  
733.000000	12.659575  
733.500000	12.081939  
734.000000	11.933090  
734.500000	12.045143  
735.000000	12.259068  
735.500000	12.124053  
736.000000	11.940568  
736.500000	11.397704  
737.000000	10.894545  
737.500000	10.396681  
738.000000	10.477878  
738.500000	10.566681  
739.000000	10.483780  
739.500000	10.082871  
740.000000	9.978454   
740.500000	10.076333  
741.000000	10.048621  
741.500000	9.642053   
742.000000	9.047916   
742.500000	8.536083   
743.000000	8.327401   
743.500000	8.273924   
744.000000	8.452409   
744.500000	8.273886   
745.000000	8.080530   
745.500000	8.013833   
746.000000	8.323598   
746.500000	8.246030   
747.000000	7.851151   
747.500000	7.452522   
748.000000	7.488916   
748.500000	7.629689   
749.000000	7.686863   
749.500000	7.538757   
750.000000	7.289863   
750.500000	6.938090   
751.000000	6.777772   
751.500000	6.766174   
752.000000	6.841159   
752.500000	6.747666   
753.000000	6.566537   
753.500000	6.398128   
754.000000	6.370560   
754.500000	6.179393   
755.000000	5.968863   
755.500000	5.830227   
756.000000	5.840257   
756.500000	5.729106   
757.000000	5.633151   
757.500000	5.604500   
758.000000	5.505106   
758.500000	5.236174   
759.000000	5.142393   
759.500000	5.384348   
760.000000	5.594886   
760.500000	5.578575   
761.000000	5.395924   
761.500000	5.219090   
762.000000	5.065545   
762.500000	5.229492   
763.000000	5.507689   
763.500000	5.535037   
764.000000	5.058568   
764.500000	4.803356   
765.000000	4.818333   
765.500000	4.875098   
766.000000	4.561424   
766.500000	4.285878   
767.000000	4.096515   
767.500000	3.960893   
768.000000	3.905060   
768.500000	4.010606   
769.000000	4.190454   
769.500000	4.187840   
770.000000	4.377348   
770.500000	4.563166   
771.000000	4.546515   
771.500000	4.219984   
772.000000	4.023121   
772.500000	4.090515   
773.000000	4.111939   
773.500000	4.038409   
774.000000	3.907704   
774.500000	3.965515   
775.000000	3.862833   
775.500000	3.727469   
776.000000	3.504909   
776.500000	3.428325   
777.000000	3.403659   
777.500000	3.352500   
778.000000	3.219545   
778.500000	3.353287   
779.000000	3.568143   
779.500000	3.661636   
780.000000	3.470901   
780.500000	3.275969   
781.000000	3.202174   
781.500000	3.216734   
782.000000	3.114234   
782.500000	3.113022   
783.000000	3.179136   
783.500000	3.191742   
784.000000	3.073590   
784.500000	3.003916   
785.000000	3.047250   
785.500000	3.204257   
786.000000	3.314939   
786.500000	3.235022   
787.000000	3.052249   
787.500000	2.869416   
788.000000	2.963727   
788.500000	3.118265   
789.000000	3.092378   
789.500000	2.853969   
790.000000	2.804265   
790.500000	2.815083   
791.000000	2.794643   
791.500000	2.643431   
792.000000	2.653840   
792.500000	2.678757   
793.000000	2.798924   
793.500000	2.827719   
794.000000	2.938075   
794.500000	2.960250   
795.000000	2.951356   
795.500000	2.925401   
796.000000	2.963469   
796.500000	3.028265   
797.000000	3.045696   
797.500000	2.979916   
798.000000	2.797174   
798.500000	2.502212   
799.000000	2.343719   
799.500000	2.401075   
800.000000	2.588757   
800.500000	2.584416   
801.000000	2.369113   
801.500000	2.185992   
802.000000	2.247871   
802.500000	2.394765   
803.000000	2.526893   
803.500000	2.651636   
804.000000	2.649037   
804.500000	2.409727   
805.000000	2.035348   
805.500000	1.839856   
806.000000	1.986484   
806.500000	2.149969   
807.000000	2.212159   
807.500000	2.248151   
808.000000	2.256500   
808.500000	2.148295   
809.000000	1.929500   
809.500000	1.824674   
810.000000	1.825348   
810.500000	1.904174   
811.000000	1.867825   
811.500000	1.906969   
812.000000	1.979931   
812.500000	2.168227   
813.000000	2.196598   
813.500000	2.114204   
814.000000	2.017454   
814.500000	2.070696   
815.000000	2.070386   
815.500000	1.973772   
816.000000	1.725371   
816.500000	1.669462   
817.000000	1.706939   
817.500000	1.808007   
818.000000	1.725234   
818.500000	1.660424   
819.000000	1.555416   
819.500000	1.635098   
820.000000	1.711522   
820.500000	1.838393   
821.000000	1.867727   
821.500000	2.016689   
822.000000	2.300886   
822.500000	2.634924   
823.000000	2.705992   
823.500000	2.629696   
824.000000	2.575704   
824.500000	2.663424   
825.000000	2.713083   
825.500000	2.687265   
826.000000	2.527409   
826.500000	2.324727   
827.000000	2.059068   
827.500000	1.913363   
828.000000	1.977522   
828.500000	2.142333   
829.000000	2.074643   
829.500000	1.728560   
830.000000	1.451939   
830.500000	1.294219   
831.000000	1.257272   
831.500000	1.134962   
832.000000	1.146287   
832.500000	1.097659   
833.000000	1.059393   
833.500000	0.936969   
834.000000	0.985333   
834.500000	1.023181   
835.000000	1.051500   
835.500000	0.961249   
836.000000	0.850363   
836.500000	0.817795   
837.000000	0.886818   
837.500000	0.989340   
838.000000	0.934393   
838.500000	0.873598   
839.000000	0.842681   
839.500000	0.909636   
840.000000	0.941598   
840.500000	0.930113   
841.000000	0.869969   
841.500000	0.730287   
842.000000	0.690643   
842.500000	0.626037   
843.000000	0.687537   
843.500000	0.593651   
844.000000	0.600681   
844.500000	0.554848   
845.000000	0.565803   
845.500000	0.506037   
846.000000	0.537977   
846.500000	0.560272   
847.000000	0.460712   
847.500000	0.306689   
848.000000	0.256295   
848.500000	0.313151   
849.000000	0.314931   
849.500000	0.234492   
850.000000	0.261143   
850.500000	0.403742   
851.000000	0.561507   
851.500000	0.575946   
852.000000	0.465818   
852.500000	0.219393   
853.000000	-0.027242  
853.500000	-0.101545  
854.000000	-0.011977  
854.500000	0.127386   
855.000000	0.162143   
855.500000	0.115212   
856.000000	0.096280   
856.500000	0.107606   
857.000000	0.148242   
857.500000	0.116886   
858.000000	0.135689   
858.500000	0.235378   
859.000000	0.377265   
859.500000	0.347946   
860.000000	0.228310   
860.500000	-0.032719  
861.000000	-0.174075  
861.500000	-0.203659  
862.000000	0.035022   
862.500000	0.102871   
863.000000	0.029007   
863.500000	-0.166181  
864.000000	-0.071424  
864.500000	0.059583   
865.000000	0.138303   
865.500000	0.142704   
866.000000	0.201454   
866.500000	0.251250   
867.000000	0.194356   
867.500000	0.065575   
868.000000	-0.053431  
868.500000	-0.131712  
869.000000	-0.126060  
869.500000	-0.102022  
870.000000	-0.006954  
870.500000	0.056810   
871.000000	0.070613   
871.500000	-0.017893  
872.000000	-0.134537  
872.500000	-0.201068  
873.000000	-0.177151  
873.500000	-0.054409  
874.000000	0.103212   
874.500000	0.255189   
875.000000	0.276606   
875.500000	0.199553   
876.000000	0.068060   
876.500000	0.000409   
877.000000	0.008295   
877.500000	0.071113   
878.000000	0.146772   
878.500000	0.230787   
879.000000	0.250590   
879.500000	0.187863   
880.000000	0.082030   
880.500000	-0.053833  
881.000000	-0.027886  
881.500000	0.064234   
882.000000	0.165219   
882.500000	0.168386   
883.000000	0.183772   
883.500000	0.140257   
884.000000	0.079045   
884.500000	-0.024719  
885.000000	-0.047348  
885.500000	-0.010674  
886.000000	-0.023734  
886.500000	0.007113   
887.000000	0.118734   
887.500000	0.175833   
888.000000	0.134287   
888.500000	0.063083   
889.000000	0.056765   
889.500000	-0.001818  
890.000000	-0.086257  
890.500000	-0.102272  
891.000000	0.107863   
891.500000	0.208151   
892.000000	0.159272   
892.500000	-0.018878  
893.000000	-0.081886  
893.500000	-0.166696  
894.000000	-0.239590  
894.500000	-0.285772  
895.000000	-0.217469  
895.500000	-0.135871  
896.000000	-0.096840  
896.500000	-0.078431  
897.000000	-0.013636  
897.500000	0.045219   

