PE FL                   SPECTRUM    ASCII       PEDS        1.60        
  -1
SA93C5~1.SP
24/04/12
16:39:06.00
24/04/12
16:39:06.00
Jan

897.500000
1









LS55
405.00
5.00
5.00
SCAN
1
20
100
100
0
400
0
1
0
1
5
ON
450 405 
1 0 0
#HDR
-1
-1
#GR
NM

0.00002384185791015625
0.0
450.000000
0.500000
896
8
263.487749
-0.409992
#DATA
450.000000	-0.169000  
450.500000	-0.127128  
451.000000	-0.162507  
451.500000	-0.172287  
452.000000	-0.011181  
452.500000	0.045462   
453.000000	-0.058681  
453.500000	-0.266871  
454.000000	-0.262803  
454.500000	-0.220628  
455.000000	-0.121287  
455.500000	-0.067780  
456.000000	0.096303   
456.500000	0.176325   
457.000000	0.200136   
457.500000	0.089257   
458.000000	-0.018575  
458.500000	-0.050333  
459.000000	0.069272   
459.500000	0.143439   
460.000000	0.090060   
460.500000	0.068878   
461.000000	0.166181   
461.500000	0.187598   
462.000000	0.125234   
462.500000	0.034454   
463.000000	0.024568   
463.500000	-0.056227  
464.000000	-0.113446  
464.500000	-0.129848  
465.000000	-0.034083  
465.500000	0.107371   
466.000000	0.344522   
466.500000	0.464181   
467.000000	0.344121   
467.500000	0.210303   
468.000000	0.053825   
468.500000	0.007053   
469.000000	-0.005325  
469.500000	0.219810   
470.000000	0.374863   
470.500000	0.426545   
471.000000	0.203954   
471.500000	0.018969   
472.000000	-0.008015  
472.500000	0.098696   
473.000000	0.118204   
473.500000	-0.078939  
474.000000	-0.155431  
474.500000	-0.153106  
475.000000	-0.087136  
475.500000	-0.138727  
476.000000	-0.047901  
476.500000	0.088310   
477.000000	0.270015   
477.500000	0.295060   
478.000000	0.307128   
478.500000	0.218848   
479.000000	0.114075   
479.500000	-0.013689  
480.000000	0.043863   
480.500000	0.103030   
481.000000	0.127719   
481.500000	0.021992   
482.000000	0.029000   
482.500000	0.141393   
483.000000	0.306265   
483.500000	0.371371   
484.000000	0.303628   
484.500000	0.083765   
485.000000	-0.000568  
485.500000	0.121560   
486.000000	0.291583   
486.500000	0.055136   
487.000000	-0.309666  
487.500000	-0.409992  
488.000000	-0.140696  
488.500000	0.169204   
489.000000	0.359810   
489.500000	0.439825   
490.000000	0.495515   
490.500000	0.436537   
491.000000	0.209537   
491.500000	-0.058196  
492.000000	-0.135977  
492.500000	-0.019772  
493.000000	0.202083   
493.500000	0.175363   
494.000000	0.052053   
494.500000	-0.112022  
495.000000	-0.119969  
495.500000	-0.021674  
496.000000	0.114992   
496.500000	0.136795   
497.000000	0.058999   
497.500000	-0.073477  
498.000000	-0.010143  
498.500000	0.032401   
499.000000	0.079151   
499.500000	0.078068   
500.000000	0.220136   
500.500000	0.273659   
501.000000	0.345090   
501.500000	0.345151   
502.000000	0.460454   
502.500000	0.509780   
503.000000	0.590068   
503.500000	0.704749   
504.000000	0.769075   
504.500000	0.629151   
505.000000	0.527522   
505.500000	0.579075   
506.000000	0.788833   
506.500000	0.956416   
507.000000	0.999583   
507.500000	0.897886   
508.000000	0.683901   
508.500000	0.571636   
509.000000	0.712151   
509.500000	0.937053   
510.000000	0.988848   
510.500000	1.010371   
511.000000	1.070409   
511.500000	1.230037   
512.000000	1.362795   
512.500000	1.476356   
513.000000	1.583242   
513.500000	1.650984   
514.000000	1.558000   
514.500000	1.333174   
515.000000	1.174696   
515.500000	1.256083   
516.000000	1.473931   
516.500000	1.593068   
517.000000	1.591492   
517.500000	1.715234   
518.000000	1.940787   
518.500000	2.031356   
519.000000	1.872037   
519.500000	1.851060   
520.000000	2.071484   
520.500000	2.484606   
521.000000	2.627507   
521.500000	2.622189   
522.000000	2.503272   
522.500000	2.607113   
523.000000	2.628196   
523.500000	2.665545   
524.000000	2.615325   
524.500000	2.680712   
525.000000	2.799893   
525.500000	2.860825   
526.000000	3.014439   
526.500000	3.163204   
527.000000	3.361856   
527.500000	3.383681   
528.000000	3.278651   
528.500000	3.294969   
529.000000	3.787515   
529.500000	4.539515   
530.000000	4.983234   
530.500000	5.333681   
531.000000	5.684159   
531.500000	6.136295   
532.000000	5.944181   
532.500000	5.524022   
533.000000	5.150015   
533.500000	5.346825   
534.000000	5.718689   
534.500000	6.351992   
535.000000	7.037371   
535.500000	7.668083   
536.000000	8.048098   
536.500000	8.051416   
537.000000	7.982219   
537.500000	8.035371   
538.000000	8.519825   
538.500000	9.050863   
539.000000	9.570590   
539.500000	10.023446  
540.000000	10.513333  
540.500000	11.036598  
541.000000	11.235378  
541.500000	11.098727  
542.000000	11.027068  
542.500000	11.524606  
543.000000	12.094204  
543.500000	12.260037  
544.000000	12.066454  
544.500000	11.792651  
545.000000	11.629962  
545.500000	11.546189  
546.000000	11.925863  
546.500000	12.019439  
547.000000	11.588530  
547.500000	10.763621  
548.000000	10.660462  
548.500000	11.171257  
549.000000	11.664742  
549.500000	11.644212  
550.000000	11.373174  
550.500000	11.272962  
551.000000	11.539674  
551.500000	11.974295  
552.000000	12.156871  
552.500000	11.822083  
553.000000	11.490446  
553.500000	11.413136  
554.000000	11.806272  
554.500000	12.111287  
555.000000	12.458265  
555.500000	12.607280  
556.000000	12.967234  
556.500000	13.099462  
557.000000	13.449893  
557.500000	13.719318  
558.000000	14.027484  
558.500000	14.178090  
559.000000	14.476863  
559.500000	14.931363  
560.000000	15.210287  
560.500000	15.292325  
561.000000	15.488757  
561.500000	16.213424  
562.000000	16.513651  
562.500000	16.639810  
563.000000	16.850621  
563.500000	17.667303  
564.000000	18.618083  
564.500000	19.180757  
565.000000	19.377401  
565.500000	19.426416  
566.000000	19.563257  
566.500000	20.014030  
567.000000	20.763727  
567.500000	21.075939  
568.000000	21.004371  
568.500000	21.245916  
569.000000	22.158106  
569.500000	23.306984  
570.000000	23.770984  
570.500000	23.717500  
571.000000	24.003924  
571.500000	25.006750  
572.000000	26.041878  
572.500000	26.322287  
573.000000	26.296856  
573.500000	26.500083  
574.000000	27.472666  
574.500000	27.788530  
575.000000	27.837348  
575.500000	28.010037  
576.000000	29.221719  
576.500000	30.138166  
577.000000	30.746992  
577.500000	30.465416  
578.000000	30.184674  
578.500000	30.285416  
579.000000	31.626545  
579.500000	33.342924  
580.000000	34.271727  
580.500000	34.257840  
581.000000	34.262318  
581.500000	34.600393  
582.000000	35.189583  
582.500000	36.208719  
583.000000	37.788068  
583.500000	39.215772  
584.000000	39.380590  
584.500000	39.318924  
585.000000	40.125325  
585.500000	41.676939  
586.000000	42.681590  
586.500000	42.963628  
587.000000	42.981992  
587.500000	43.823500  
588.000000	45.225530  
588.500000	46.653060  
589.000000	47.612280  
589.500000	48.119916  
590.000000	48.575265  
590.500000	49.524340  
591.000000	50.682303  
591.500000	51.670234  
592.000000	52.847954  
592.500000	53.708287  
593.000000	54.643484  
593.500000	55.636787  
594.000000	57.147727  
594.500000	58.576083  
595.000000	59.294257  
595.500000	59.213189  
596.000000	59.324234  
596.500000	61.458765  
597.000000	64.571469  
597.500000	67.056242  
598.000000	67.479431  
598.500000	67.305598  
599.000000	67.907886  
599.500000	69.411931  
600.000000	70.778310  
600.500000	71.920166  
601.000000	73.312598  
601.500000	75.128000  
602.000000	77.466128  
602.500000	79.148734  
603.000000	79.726143  
603.500000	79.740590  
604.000000	80.985083  
604.500000	83.336962  
605.000000	86.326037  
605.500000	87.645772  
606.000000	88.466204  
606.500000	89.496787  
607.000000	91.787159  
607.500000	93.771909  
608.000000	95.685196  
608.500000	96.680393  
609.000000	98.144075  
609.500000	99.172666  
610.000000	100.877401 
610.500000	103.057666 
611.000000	105.591318 
611.500000	107.654666 
612.000000	109.124568 
612.500000	110.499303 
613.000000	111.972007 
613.500000	114.729909 
614.000000	118.024053 
614.500000	121.320068 
615.000000	123.485515 
615.500000	124.649727 
616.000000	125.488575 
616.500000	126.858166 
617.000000	129.221666 
617.500000	132.339863 
618.000000	135.339121 
618.500000	138.506507 
619.000000	141.737893 
619.500000	144.906969 
620.000000	145.923613 
620.500000	147.579416 
621.000000	149.885636 
621.500000	153.754636 
622.000000	155.712166 
622.500000	158.423348 
623.000000	160.468568 
623.500000	163.159272 
624.000000	163.714621 
624.500000	165.878242 
625.000000	169.198446 
625.500000	173.771454 
626.000000	177.680242 
626.500000	181.316053 
627.000000	184.074553 
627.500000	185.839992 
628.000000	187.342113 
628.500000	190.642068 
629.000000	194.371696 
629.500000	197.089863 
630.000000	198.789128 
630.500000	201.170568 
631.000000	203.928492 
631.500000	206.557151 
632.000000	209.732098 
632.500000	212.278310 
633.000000	214.968916 
633.500000	217.249893 
634.000000	221.371780 
634.500000	223.417606 
635.000000	224.381803 
635.500000	224.317219 
636.000000	227.327750 
636.500000	230.393613 
637.000000	232.889446 
637.500000	233.171015 
638.000000	233.843310 
638.500000	235.448560 
639.000000	238.887560 
639.500000	243.049181 
640.000000	246.761371 
640.500000	248.561431 
641.000000	249.224401 
641.500000	250.372666 
642.000000	252.298621 
642.500000	253.158606 
643.000000	253.250166 
643.500000	255.013393 
644.000000	259.401174 
644.500000	262.535454 
645.000000	262.716462 
645.500000	261.365689 
646.000000	260.880522 
646.500000	260.152196 
647.000000	259.242303 
647.500000	258.794689 
648.000000	260.368098 
648.500000	261.922348 
649.000000	262.313234 
649.500000	262.088371 
650.000000	262.146363 
650.500000	262.435151 
651.000000	262.672250 
651.500000	263.406916 
652.000000	263.487749 
652.500000	263.431083 
653.000000	261.842250 
653.500000	260.198704 
654.000000	258.091068 
654.500000	256.110795 
655.000000	254.040727 
655.500000	253.622356 
656.000000	253.828734 
656.500000	253.431371 
657.000000	251.774401 
657.500000	249.439227 
658.000000	248.031151 
658.500000	246.880606 
659.000000	244.848462 
659.500000	241.293000 
660.000000	236.857181 
660.500000	233.467113 
661.000000	231.829303 
661.500000	230.971924 
662.000000	230.202015 
662.500000	227.948704 
663.000000	223.876287 
663.500000	217.620363 
664.000000	212.663704 
664.500000	210.309712 
665.000000	209.285174 
665.500000	206.472871 
666.000000	201.996606 
666.500000	197.191401 
667.000000	193.779878 
667.500000	190.808401 
668.000000	188.117484 
668.500000	184.126719 
669.000000	179.538318 
669.500000	173.531628 
670.000000	168.618840 
670.500000	164.192030 
671.000000	161.448075 
671.500000	159.181037 
672.000000	156.723272 
672.500000	153.076946 
673.000000	148.588742 
673.500000	144.705462 
674.000000	141.325848 
674.500000	137.656356 
675.000000	133.750128 
675.500000	129.698628 
676.000000	126.047318 
676.500000	121.982363 
677.000000	118.585886 
677.500000	115.474424 
678.000000	113.235628 
678.500000	110.066984 
679.000000	106.535856 
679.500000	102.156893 
680.000000	99.212219  
680.500000	97.208666  
681.000000	95.100833  
681.500000	91.195560  
682.000000	86.792242  
682.500000	83.894060  
683.000000	83.144250  
683.500000	82.481462  
684.000000	80.049780  
684.500000	75.927909  
685.000000	72.063356  
685.500000	69.404598  
686.000000	68.016196  
686.500000	66.377340  
687.000000	64.546992  
687.500000	62.754325  
688.000000	61.386977  
688.500000	59.458159  
689.000000	57.159893  
689.500000	55.523999  
690.000000	54.816143  
690.500000	53.532393  
691.000000	51.490234  
691.500000	49.840856  
692.000000	49.071909  
692.500000	47.413621  
693.000000	45.256174  
693.500000	43.094750  
694.000000	41.832303  
694.500000	40.210515  
695.000000	38.682022  
695.500000	37.474939  
696.000000	36.753795  
696.500000	36.260545  
697.000000	35.234356  
697.500000	33.815780  
698.000000	32.058257  
698.500000	31.134227  
699.000000	30.543310  
699.500000	30.267060  
700.000000	29.366386  
700.500000	28.593712  
701.000000	27.961553  
701.500000	27.314106  
702.000000	26.358818  
702.500000	25.423037  
703.000000	24.909848  
703.500000	24.596068  
704.000000	23.904598  
704.500000	23.302560  
705.000000	23.051863  
705.500000	22.594439  
706.000000	21.304386  
706.500000	20.033393  
707.000000	19.483083  
707.500000	19.670606  
708.000000	19.655750  
708.500000	19.233219  
709.000000	18.537530  
709.500000	18.008189  
710.000000	17.413424  
710.500000	16.999689  
711.000000	16.422575  
711.500000	16.108106  
712.000000	15.701416  
712.500000	15.783416  
713.000000	15.684795  
713.500000	15.481484  
714.000000	14.930424  
714.500000	14.394212  
715.000000	13.814424  
715.500000	13.358159  
716.000000	13.113393  
716.500000	13.030219  
717.000000	12.973340  
717.500000	12.924833  
718.000000	12.923537  
718.500000	12.661734  
719.000000	11.914431  
719.500000	11.176363  
720.000000	10.736030  
720.500000	10.829348  
721.000000	10.951189  
721.500000	10.889113  
722.000000	10.320174  
722.500000	9.680575   
723.000000	9.277515   
723.500000	9.482977   
724.000000	9.702901   
724.500000	9.755310   
725.000000	9.513492   
725.500000	9.328659   
726.000000	9.086219   
726.500000	8.739628   
727.000000	8.463977   
727.500000	8.443901   
728.000000	8.512886   
728.500000	8.464704   
729.000000	8.277840   
729.500000	7.945189   
730.000000	7.667598   
730.500000	7.673750   
731.000000	7.796818   
731.500000	7.905280   
732.000000	7.697348   
732.500000	7.601477   
733.000000	7.577219   
733.500000	7.568075   
734.000000	7.436318   
734.500000	7.148045   
735.000000	6.946303   
735.500000	6.879598   
736.000000	7.003128   
736.500000	6.929893   
737.000000	6.780219   
737.500000	6.627522   
738.000000	6.654219   
738.500000	6.813878   
739.000000	6.630840   
739.500000	6.235068   
740.000000	5.814469   
740.500000	5.865901   
741.000000	5.882651   
741.500000	5.761227   
742.000000	5.573681   
742.500000	5.728204   
743.000000	5.999999   
743.500000	6.094613   
744.000000	5.935613   
744.500000	5.701666   
745.000000	5.525325   
745.500000	5.514363   
746.000000	5.457659   
746.500000	5.194500   
747.000000	4.764848   
747.500000	4.548250   
748.000000	4.547803   
748.500000	4.730250   
749.000000	4.819560   
749.500000	4.842568   
750.000000	4.834106   
750.500000	4.944037   
751.000000	5.034439   
751.500000	4.860356   
752.000000	4.539863   
752.500000	4.539454   
753.000000	4.782212   
753.500000	4.879393   
754.000000	4.558954   
754.500000	4.293462   
755.000000	4.256219   
755.500000	4.433962   
756.000000	4.417643   
756.500000	4.187946   
757.000000	3.771999   
757.500000	3.677772   
758.000000	3.934765   
758.500000	4.451295   
759.000000	4.530098   
759.500000	4.286484   
760.000000	3.735204   
760.500000	3.618969   
761.000000	3.683757   
761.500000	4.037340   
762.000000	4.039992   
762.500000	4.079280   
763.000000	3.971106   
763.500000	3.900212   
764.000000	3.597492   
764.500000	3.623553   
765.000000	3.974378   
765.500000	4.379659   
766.000000	4.244507   
766.500000	3.872734   
767.000000	3.553151   
767.500000	3.486621   
768.000000	3.403431   
768.500000	3.353340   
769.000000	3.239666   
769.500000	3.095189   
770.000000	3.015477   
770.500000	3.038992   
771.000000	3.018393   
771.500000	2.932659   
772.000000	3.000606   
772.500000	3.226280   
773.000000	3.506757   
773.500000	3.552053   
774.000000	3.335939   
774.500000	2.996333   
775.000000	2.866803   
775.500000	2.998499   
776.000000	3.117090   
776.500000	3.095939   
777.000000	3.073136   
777.500000	3.154833   
778.000000	3.126007   
778.500000	3.090871   
779.000000	3.071750   
779.500000	3.119515   
780.000000	3.160143   
780.500000	3.223439   
781.000000	3.286007   
781.500000	3.225583   
782.000000	3.060613   
782.500000	2.909446   
783.000000	2.906128   
783.500000	2.899242   
784.000000	2.795613   
784.500000	2.712515   
785.000000	2.715166   
785.500000	2.801962   
786.000000	2.771840   
786.500000	2.704522   
787.000000	2.605371   
787.500000	2.556931   
788.000000	2.597022   
788.500000	2.696704   
789.000000	2.830696   
789.500000	2.761053   
790.000000	2.606500   
790.500000	2.394037   
791.000000	2.410106   
791.500000	2.548166   
792.000000	2.763962   
792.500000	2.835401   
793.000000	2.657893   
793.500000	2.391954   
794.000000	2.198151   
794.500000	2.341818   
795.000000	2.521386   
795.500000	2.680348   
796.000000	2.489022   
796.500000	2.321939   
797.000000	2.214659   
797.500000	2.337325   
798.000000	2.428818   
798.500000	2.381045   
799.000000	2.165643   
799.500000	2.035287   
800.000000	2.111750   
800.500000	2.049856   
801.000000	1.978257   
801.500000	1.894106   
802.000000	2.071333   
802.500000	2.024689   
803.000000	1.960840   
803.500000	1.854537   
804.000000	1.966181   
804.500000	1.875340   
805.000000	1.777219   
805.500000	1.719015   
806.000000	1.823727   
806.500000	2.019909   
807.000000	2.150810   
807.500000	2.152227   
808.000000	2.039037   
808.500000	1.999166   
809.000000	2.035689   
809.500000	2.015606   
810.000000	1.942446   
810.500000	1.847727   
811.000000	1.771068   
811.500000	1.613909   
812.000000	1.615712   
812.500000	1.673727   
813.000000	1.707348   
813.500000	1.621424   
814.000000	1.607128   
814.500000	1.679848   
815.000000	1.766462   
815.500000	1.702787   
816.000000	1.517651   
816.500000	1.454909   
817.000000	1.596780   
817.500000	1.813416   
818.000000	1.710340   
818.500000	1.538053   
819.000000	1.596166   
819.500000	1.994765   
820.000000	2.097462   
820.500000	2.050825   
821.000000	1.961681   
821.500000	2.205727   
822.000000	2.252765   
822.500000	2.283659   
823.000000	2.193977   
823.500000	2.357515   
824.000000	2.430666   
824.500000	2.488848   
825.000000	2.378795   
825.500000	2.395439   
826.000000	2.535159   
826.500000	2.666643   
827.000000	2.671477   
827.500000	2.430909   
828.000000	2.123901   
828.500000	1.770500   
829.000000	1.630750   
829.500000	1.519424   
830.000000	1.399000   
830.500000	1.180636   
831.000000	1.218598   
831.500000	1.418212   
832.000000	1.534416   
832.500000	1.373863   
833.000000	1.198856   
833.500000	1.151401   
834.000000	1.235166   
834.500000	1.182901   
835.000000	1.016848   
835.500000	0.828090   
836.000000	0.831174   
836.500000	0.877128   
837.000000	0.893295   
837.500000	0.848628   
838.000000	0.875780   
838.500000	0.952606   
839.000000	1.006113   
839.500000	0.935537   
840.000000	0.792666   
840.500000	0.704469   
841.000000	0.766712   
841.500000	0.869409   
842.000000	0.850151   
842.500000	0.772901   
843.000000	0.764242   
843.500000	0.818083   
844.000000	0.726484   
844.500000	0.644121   
845.000000	0.608712   
845.500000	0.627780   
846.000000	0.513643   
846.500000	0.503348   
847.000000	0.621636   
847.500000	0.812484   
848.000000	0.657053   
848.500000	0.471659   
849.000000	0.418272   
849.500000	0.622053   
850.000000	0.706734   
850.500000	0.672310   
851.000000	0.444575   
851.500000	0.190098   
852.000000	-0.076234  
852.500000	-0.144053  
853.000000	-0.023219  
853.500000	0.154681   
854.000000	0.219621   
854.500000	0.223454   
855.000000	0.144537   
855.500000	0.099621   
856.000000	0.077590   
856.500000	0.115560   
857.000000	0.139454   
857.500000	0.133712   
858.000000	0.088363   
858.500000	-0.046863  
859.000000	-0.176386  
859.500000	-0.181280  
860.000000	-0.046098  
860.500000	0.045939   
861.000000	0.006166   
861.500000	-0.083196  
862.000000	-0.141696  
862.500000	-0.090113  
863.000000	0.008795   
863.500000	0.149000   
864.000000	0.210000   
864.500000	0.175068   
865.000000	0.050113   
865.500000	-0.047143  
866.000000	0.006522   
866.500000	0.168371   
867.000000	0.147053   
867.500000	-0.021795  
868.000000	-0.184977  
868.500000	-0.082575  
869.000000	-0.004719  
869.500000	0.002833   
870.000000	-0.084537  
870.500000	-0.106515  
871.000000	-0.072446  
871.500000	-0.025674  
872.000000	0.098280   
872.500000	0.099015   
873.000000	0.051250   
873.500000	-0.068772  
874.000000	-0.059371  
874.500000	-0.146848  
875.000000	-0.197560  
875.500000	-0.238098  
876.000000	-0.168954  
876.500000	-0.108522  
877.000000	-0.052462  
877.500000	-0.064992  
878.000000	-0.031393  
878.500000	-0.047590  
879.000000	-0.054249  
879.500000	-0.113765  
880.000000	-0.088446  
880.500000	0.007977   
881.000000	0.082492   
881.500000	-0.015128  
882.000000	-0.063007  
882.500000	-0.085409  
883.000000	-0.051174  
883.500000	-0.045734  
884.000000	-0.034909  
884.500000	-0.091613  
885.000000	-0.111787  
885.500000	-0.105333  
886.000000	-0.019189  
886.500000	-0.085045  
887.000000	-0.101204  
887.500000	-0.071651  
888.000000	0.045856   
888.500000	-0.054848  
889.000000	-0.101075  
889.500000	-0.077825  
890.000000	0.171848   
890.500000	0.238939   
891.000000	0.159469   
891.500000	-0.038568  
892.000000	-0.099651  
892.500000	-0.081530  
893.000000	0.005469   
893.500000	0.003340   
894.000000	-0.008840  
894.500000	0.042401   
895.000000	0.153606   
895.500000	0.172234   
896.000000	0.036598   
896.500000	-0.093712  
897.000000	-0.108795  
897.500000	-0.070492  

