PE FL                   SPECTRUM    ASCII       PEDS        1.60        
  -1
SA93BD~1.SP
24/04/12
16:07:43.00
24/04/12
16:07:43.00
Jan

897.500000
1









LS55
405.00
5.00
5.00
SCAN
1
20
100
100
0
400
0
1
0
1
5
ON
450 405 
1 0 0
#HDR
-1
-1
#GR
NM

0.00002384185791015625
0.0
450.000000
0.500000
896
8
343.558931
-0.401196
#DATA
450.000000	-0.001000  
450.500000	0.129022   
451.000000	0.206628   
451.500000	0.210143   
452.000000	0.061356   
452.500000	0.110560   
453.000000	0.222803   
453.500000	0.337340   
454.000000	0.149265   
454.500000	-0.029181  
455.000000	-0.172666  
455.500000	-0.207719  
456.000000	-0.251696  
456.500000	-0.173310  
457.000000	-0.097537  
457.500000	-0.062848  
458.000000	-0.032303  
458.500000	0.024568   
459.000000	-0.056015  
459.500000	-0.170462  
460.000000	-0.175189  
460.500000	-0.095121  
461.000000	-0.049174  
461.500000	-0.034848  
462.000000	0.006689   
462.500000	0.038469   
463.000000	0.091053   
463.500000	0.167037   
464.000000	0.240310   
464.500000	0.244234   
465.000000	0.191287   
465.500000	0.115234   
466.000000	0.019030   
466.500000	0.053977   
467.000000	0.182515   
467.500000	0.308386   
468.000000	0.248439   
468.500000	0.022280   
469.000000	-0.129446  
469.500000	-0.128166  
470.000000	0.031371   
470.500000	0.061106   
471.000000	0.079750   
471.500000	0.139234   
472.000000	0.265568   
472.500000	0.363409   
473.000000	0.334871   
473.500000	0.265856   
474.000000	0.072939   
474.500000	-0.009651  
475.000000	0.018477   
475.500000	0.166030   
476.000000	0.165363   
476.500000	0.152636   
477.000000	0.188765   
477.500000	0.264765   
478.000000	0.260249   
478.500000	0.275507   
479.000000	0.310984   
479.500000	0.367484   
480.000000	0.321083   
480.500000	0.099416   
481.000000	-0.141280  
481.500000	-0.197886  
482.000000	0.100939   
482.500000	0.478181   
483.000000	0.574893   
483.500000	0.328318   
484.000000	0.057901   
484.500000	0.122492   
485.000000	0.259568   
485.500000	0.357507   
486.000000	0.113333   
486.500000	-0.103734  
487.000000	-0.232318  
487.500000	0.027159   
488.000000	0.355969   
488.500000	0.574803   
489.000000	0.462371   
489.500000	0.253098   
490.000000	0.133666   
490.500000	0.213681   
491.000000	0.290484   
491.500000	0.290886   
492.000000	0.247325   
492.500000	0.238659   
493.000000	0.298750   
493.500000	0.245598   
494.000000	0.132757   
494.500000	0.020386   
495.000000	0.130037   
495.500000	0.308666   
496.000000	0.476143   
496.500000	0.445871   
497.000000	0.339515   
497.500000	0.280818   
498.000000	0.289340   
498.500000	0.241181   
499.000000	0.150848   
499.500000	0.182992   
500.000000	0.312977   
500.500000	0.393242   
501.000000	0.379446   
501.500000	0.308446   
502.000000	0.351613   
502.500000	0.445128   
503.000000	0.538227   
503.500000	0.581560   
504.000000	0.530651   
504.500000	0.366803   
505.000000	0.196674   
505.500000	0.157992   
506.000000	0.308560   
506.500000	0.534750   
507.000000	0.660189   
507.500000	0.732613   
508.000000	0.875393   
508.500000	1.050318   
509.000000	1.224750   
509.500000	1.288007   
510.000000	1.270340   
510.500000	1.243787   
511.000000	1.189378   
511.500000	1.024356   
512.000000	0.831492   
512.500000	0.821871   
513.000000	1.007022   
513.500000	1.219083   
514.000000	1.297780   
514.500000	1.378515   
515.000000	1.374704   
515.500000	1.413590   
516.000000	1.459416   
516.500000	1.778015   
517.000000	2.056750   
517.500000	2.246083   
518.000000	2.179386   
518.500000	2.177242   
519.000000	2.186939   
519.500000	2.203371   
520.000000	2.139507   
520.500000	2.167204   
521.000000	2.298371   
521.500000	2.415196   
522.000000	2.517772   
522.500000	2.592492   
523.000000	2.682537   
523.500000	2.740772   
524.000000	2.801166   
524.500000	2.857083   
525.000000	2.892886   
525.500000	2.939113   
526.000000	3.052765   
526.500000	3.137000   
527.000000	3.189060   
527.500000	3.308174   
528.000000	3.401371   
528.500000	3.459530   
529.000000	3.539719   
529.500000	3.888848   
530.000000	4.115590   
530.500000	4.277863   
531.000000	4.354666   
531.500000	4.733166   
532.000000	5.001075   
532.500000	5.293984   
533.000000	5.588007   
533.500000	5.935613   
534.000000	6.034257   
534.500000	6.109507   
535.000000	6.418348   
535.500000	6.826931   
536.000000	7.071674   
536.500000	7.494840   
537.000000	8.033439   
537.500000	8.614939   
538.000000	8.697825   
538.500000	8.788416   
539.000000	8.954446   
539.500000	9.328795   
540.000000	9.700333   
540.500000	10.218310  
541.000000	10.673992  
541.500000	10.907469  
542.000000	11.174409  
542.500000	11.485757  
543.000000	11.857636  
543.500000	11.844969  
544.000000	11.744462  
544.500000	11.579484  
545.000000	11.528598  
545.500000	11.636287  
546.000000	12.044719  
546.500000	12.349386  
547.000000	12.401219  
547.500000	12.205666  
548.000000	11.921856  
548.500000	11.878333  
549.000000	11.939378  
549.500000	12.248189  
550.000000	12.233136  
550.500000	12.288583  
551.000000	12.059356  
551.500000	12.041674  
552.000000	11.975909  
552.500000	12.283227  
553.000000	12.552333  
553.500000	12.839969  
554.000000	12.991227  
554.500000	12.935000  
555.000000	12.762878  
555.500000	12.545500  
556.000000	12.548325  
556.500000	12.377431  
557.000000	12.330250  
557.500000	12.676984  
558.000000	13.619371  
558.500000	14.432621  
559.000000	14.940712  
559.500000	14.967159  
560.000000	15.019886  
560.500000	14.940030  
561.000000	15.084795  
561.500000	15.458393  
562.000000	16.184090  
562.500000	16.776962  
563.000000	17.145750  
563.500000	17.503931  
564.000000	18.155113  
564.500000	18.635992  
565.000000	18.773340  
565.500000	18.807227  
566.000000	19.424136  
566.500000	20.917977  
567.000000	22.325272  
567.500000	22.739500  
568.000000	22.460106  
568.500000	22.144909  
569.000000	22.458825  
569.500000	23.146871  
570.000000	24.075636  
570.500000	25.102143  
571.000000	25.964310  
571.500000	26.103045  
572.000000	26.359848  
572.500000	26.659537  
573.000000	27.093659  
573.500000	27.579613  
574.000000	28.033393  
574.500000	28.775977  
575.000000	29.517022  
575.500000	30.013583  
576.000000	30.358734  
576.500000	30.739280  
577.000000	30.821545  
577.500000	30.874590  
578.000000	31.310765  
578.500000	31.817643  
579.000000	32.582090  
579.500000	33.033886  
580.000000	34.056340  
580.500000	35.209128  
581.000000	36.009969  
581.500000	36.067356  
582.000000	36.320757  
582.500000	37.381636  
583.000000	38.515931  
583.500000	39.325234  
584.000000	39.757462  
584.500000	40.753030  
585.000000	41.803280  
585.500000	42.561909  
586.000000	43.163242  
586.500000	44.178310  
587.000000	45.299439  
587.500000	46.260765  
588.000000	47.362378  
588.500000	48.403583  
589.000000	49.437992  
589.500000	50.118530  
590.000000	51.170121  
590.500000	52.682946  
591.000000	54.323378  
591.500000	55.435689  
592.000000	55.973431  
592.500000	56.843068  
593.000000	57.936265  
593.500000	59.521143  
594.000000	60.454704  
594.500000	61.222159  
595.000000	62.026204  
595.500000	63.423606  
596.000000	65.353863  
596.500000	67.125916  
597.000000	68.828621  
597.500000	70.112954  
598.000000	71.591575  
598.500000	72.574939  
599.000000	73.718878  
599.500000	75.204212  
600.000000	76.930916  
600.500000	78.611742  
601.000000	80.018446  
601.500000	81.691060  
602.000000	82.912325  
602.500000	83.450348  
603.000000	83.677469  
603.500000	85.366378  
604.000000	88.344765  
604.500000	91.537750  
605.000000	93.458742  
605.500000	94.970909  
606.000000	96.708954  
606.500000	98.752878  
607.000000	100.406068 
607.500000	101.842666 
608.000000	102.748666 
608.500000	104.817696 
609.000000	107.553507 
609.500000	110.666621 
610.000000	112.605060 
610.500000	114.291106 
611.000000	115.840484 
611.500000	117.901272 
612.000000	119.951871 
612.500000	122.541295 
613.000000	125.403060 
613.500000	127.666606 
614.000000	129.514795 
614.500000	131.268310 
615.000000	133.749643 
615.500000	136.900530 
616.000000	140.019128 
616.500000	142.659583 
617.000000	145.202628 
617.500000	148.630106 
618.000000	152.657007 
618.500000	156.360090 
619.000000	159.017166 
619.500000	161.603378 
620.000000	164.121363 
620.500000	167.220234 
621.000000	169.747318 
621.500000	173.366424 
622.000000	176.653613 
622.500000	181.043234 
623.000000	184.119060 
623.500000	187.429568 
624.000000	188.925212 
624.500000	191.067757 
625.000000	193.627681 
625.500000	198.457000 
626.000000	202.497530 
626.500000	205.493386 
627.000000	208.732446 
627.500000	213.348537 
628.000000	217.578628 
628.500000	219.645643 
629.000000	222.588446 
629.500000	227.897356 
630.000000	234.487901 
630.500000	237.647651 
631.000000	238.961734 
631.500000	241.727174 
632.000000	246.985469 
632.500000	252.197969 
633.000000	254.756795 
633.500000	257.090136 
634.000000	260.235227 
634.500000	265.689500 
635.000000	269.752499 
635.500000	272.506181 
636.000000	274.499484 
636.500000	277.679325 
637.000000	281.285083 
637.500000	284.014196 
638.000000	286.952015 
638.500000	289.377863 
639.000000	293.025356 
639.500000	296.935083 
640.000000	301.857151 
640.500000	304.891969 
641.000000	307.144946 
641.500000	309.065068 
642.000000	311.520810 
642.500000	312.747787 
643.000000	314.516825 
643.500000	317.357348 
644.000000	319.866007 
644.500000	320.552871 
645.000000	321.397863 
645.500000	322.999765 
646.000000	324.034318 
646.500000	325.425621 
647.000000	328.322166 
647.500000	331.991712 
648.000000	332.604204 
648.500000	333.135893 
649.000000	334.580848 
649.500000	337.991537 
650.000000	338.012666 
650.500000	337.311166 
651.000000	336.913780 
651.500000	339.436666 
652.000000	340.792575 
652.500000	341.466606 
653.000000	340.269363 
653.500000	340.175416 
654.000000	341.144583 
654.500000	343.558931 
655.000000	343.124219 
655.500000	339.524583 
656.000000	335.137295 
656.500000	333.247787 
657.000000	332.934151 
657.500000	331.962681 
658.000000	330.727750 
658.500000	329.931037 
659.000000	329.029613 
659.500000	326.572295 
660.000000	323.049113 
660.500000	320.962659 
661.000000	319.960500 
661.500000	319.552848 
662.000000	316.748787 
662.500000	313.326606 
663.000000	309.695000 
663.500000	306.916545 
664.000000	302.655515 
664.500000	298.200189 
665.000000	294.743984 
665.500000	292.804848 
666.000000	289.644833 
666.500000	285.323780 
667.000000	280.354954 
667.500000	276.399704 
668.000000	271.640015 
668.500000	266.817704 
669.000000	261.443931 
669.500000	257.217431 
670.000000	253.749878 
670.500000	250.517121 
671.000000	244.660962 
671.500000	238.083401 
672.000000	232.562439 
672.500000	229.160242 
673.000000	224.618674 
673.500000	219.915856 
674.000000	215.565507 
674.500000	211.091674 
675.000000	204.468068 
675.500000	197.102871 
676.000000	191.306454 
676.500000	187.155522 
677.000000	183.558500 
677.500000	179.816818 
678.000000	175.902719 
678.500000	171.779196 
679.000000	166.921325 
679.500000	161.365515 
680.000000	155.395280 
680.500000	151.476545 
681.000000	148.396242 
681.500000	145.819386 
682.000000	141.440318 
682.500000	136.305113 
683.000000	130.516310 
683.500000	126.177045 
684.000000	123.128416 
684.500000	120.792719 
685.000000	117.174787 
685.500000	112.652553 
686.000000	108.604757 
686.500000	105.415439 
687.000000	103.329515 
687.500000	101.726590 
688.000000	99.851227  
688.500000	97.722818  
689.000000	94.953053  
689.500000	91.786492  
690.000000	87.708871  
690.500000	84.295999  
691.000000	82.070348  
691.500000	80.516507  
692.000000	77.790931  
692.500000	74.536659  
693.000000	71.505568  
693.500000	69.709856  
694.000000	68.453333  
694.500000	66.516325  
695.000000	63.540250  
695.500000	60.738340  
696.000000	59.100651  
696.500000	58.062500  
697.000000	56.539969  
697.500000	54.143204  
698.000000	52.291954  
698.500000	51.195492  
699.000000	50.498143  
699.500000	49.360772  
700.000000	48.015984  
700.500000	46.309545  
701.000000	44.731613  
701.500000	43.097181  
702.000000	42.192060  
702.500000	41.105340  
703.000000	39.458613  
703.500000	37.416810  
704.000000	36.500242  
704.500000	36.397371  
705.000000	36.409545  
705.500000	35.545704  
706.000000	34.199106  
706.500000	33.131833  
707.000000	32.527780  
707.500000	32.045371  
708.000000	31.303242  
708.500000	30.061143  
709.000000	28.440704  
709.500000	26.890545  
710.000000	25.905371  
710.500000	25.533196  
711.000000	24.987507  
711.500000	24.218348  
712.000000	23.814000  
712.500000	23.898537  
713.000000	23.814659  
713.500000	23.206439  
714.000000	22.370992  
714.500000	21.881045  
715.000000	21.602659  
715.500000	21.218931  
716.000000	20.485348  
716.500000	19.514810  
717.000000	18.833242  
717.500000	18.767045  
718.000000	18.857037  
718.500000	18.838893  
719.000000	18.447734  
719.500000	17.695848  
720.000000	16.714500  
720.500000	16.287992  
721.000000	16.145356  
721.500000	15.873545  
722.000000	15.223681  
722.500000	14.821121  
723.000000	14.965924  
723.500000	14.928477  
724.000000	14.474250  
724.500000	13.944166  
725.000000	13.647113  
725.500000	13.452962  
726.000000	13.302734  
726.500000	13.032318  
727.000000	12.582901  
727.500000	12.233469  
728.000000	11.852984  
728.500000	11.906492  
729.000000	11.963181  
729.500000	11.769386  
730.000000	11.167886  
730.500000	10.659242  
731.000000	10.465674  
731.500000	10.417227  
732.000000	10.204696  
732.500000	9.920295   
733.000000	9.802500   
733.500000	9.569621   
734.000000	9.227749   
734.500000	8.837515   
735.000000	8.820015   
735.500000	8.997492   
736.000000	9.243628   
736.500000	9.285681   
737.000000	9.021742   
737.500000	8.443484   
738.000000	8.002242   
738.500000	7.857977   
739.000000	7.631803   
739.500000	7.215386   
740.000000	6.869962   
740.500000	7.257507   
741.000000	7.729242   
741.500000	7.877303   
742.000000	7.451840   
742.500000	7.120234   
743.000000	6.994356   
743.500000	7.107636   
744.000000	6.915893   
744.500000	6.576507   
745.000000	6.400742   
745.500000	6.756719   
746.000000	7.173196   
746.500000	7.114939   
747.000000	6.394136   
747.500000	5.724750   
748.000000	5.503621   
748.500000	5.530325   
749.000000	5.672363   
749.500000	5.847628   
750.000000	6.148560   
750.500000	6.258386   
751.000000	6.147015   
751.500000	5.947560   
752.000000	5.566840   
752.500000	5.373992   
753.000000	5.429780   
753.500000	5.725659   
754.000000	5.479030   
754.500000	5.208030   
755.000000	5.104234   
755.500000	5.335734   
756.000000	5.269340   
756.500000	5.067863   
757.000000	4.940992   
757.500000	4.968242   
758.000000	4.923856   
758.500000	5.025969   
759.000000	5.075840   
759.500000	4.998977   
760.000000	4.818909   
760.500000	4.670446   
761.000000	4.541613   
761.500000	4.362560   
762.000000	4.303166   
762.500000	4.408606   
763.000000	4.557181   
763.500000	4.477454   
764.000000	4.369727   
764.500000	4.335840   
765.000000	4.443181   
765.500000	4.497719   
766.000000	4.289636   
766.500000	3.835984   
767.000000	3.657037   
767.500000	3.692643   
768.000000	3.896272   
768.500000	3.823727   
769.000000	3.713227   
769.500000	3.567749   
770.000000	3.602469   
770.500000	3.865015   
771.000000	4.172484   
771.500000	4.068689   
772.000000	3.608446   
772.500000	3.302969   
773.000000	3.324189   
773.500000	3.501234   
774.000000	3.585189   
774.500000	3.401931   
775.000000	3.213196   
775.500000	3.112659   
776.000000	3.317780   
776.500000	3.447060   
777.000000	3.462742   
777.500000	3.422022   
778.000000	3.459772   
778.500000	3.437151   
779.000000	3.306750   
779.500000	3.230045   
780.000000	3.202742   
780.500000	3.287446   
781.000000	3.338954   
781.500000	3.408098   
782.000000	3.375946   
782.500000	3.297265   
783.000000	3.089719   
783.500000	2.879742   
784.000000	2.831386   
784.500000	2.892643   
785.000000	2.929931   
785.500000	2.893954   
786.000000	2.913651   
786.500000	2.952462   
787.000000	3.010901   
787.500000	3.023250   
788.000000	3.124636   
788.500000	3.124954   
789.000000	3.027704   
789.500000	2.937871   
790.000000	3.018712   
790.500000	2.974068   
791.000000	2.655151   
791.500000	2.209500   
792.000000	2.105333   
792.500000	2.453325   
793.000000	2.858454   
793.500000	3.034901   
794.000000	2.984446   
794.500000	2.898325   
795.000000	2.782553   
795.500000	2.700166   
796.000000	2.496492   
796.500000	2.398553   
797.000000	2.410742   
797.500000	2.581901   
798.000000	2.544803   
798.500000	2.383946   
799.000000	2.059106   
799.500000	1.939848   
800.000000	1.936886   
800.500000	2.187159   
801.000000	2.443477   
801.500000	2.583659   
802.000000	2.497371   
802.500000	2.556674   
803.000000	2.592590   
803.500000	2.553780   
804.000000	2.326643   
804.500000	2.324666   
805.000000	2.393856   
805.500000	2.531022   
806.000000	2.232651   
806.500000	2.064371   
807.000000	1.909250   
807.500000	2.064159   
808.000000	2.080477   
808.500000	2.262015   
809.000000	2.311977   
809.500000	2.441924   
810.000000	2.296318   
810.500000	2.154780   
811.000000	1.856053   
811.500000	1.601856   
812.000000	1.412090   
812.500000	1.536000   
813.000000	1.604242   
813.500000	1.589356   
814.000000	1.526409   
814.500000	1.664454   
815.000000	1.708151   
815.500000	1.646098   
816.000000	1.625984   
816.500000	1.743287   
817.000000	1.752053   
817.500000	1.574643   
818.000000	1.434424   
818.500000	1.447560   
819.000000	1.546712   
819.500000	1.573189   
820.000000	1.652780   
820.500000	1.697409   
821.000000	1.889250   
821.500000	1.995712   
822.000000	2.011143   
822.500000	1.941356   
823.000000	2.110500   
823.500000	2.472954   
824.000000	2.623939   
824.500000	2.518113   
825.000000	2.353280   
825.500000	2.398507   
826.000000	2.418371   
826.500000	2.269818   
827.000000	2.011916   
827.500000	1.742515   
828.000000	1.546560   
828.500000	1.305416   
829.000000	1.321969   
829.500000	1.471000   
830.000000	1.695371   
830.500000	1.783734   
831.000000	1.744969   
831.500000	1.640962   
832.000000	1.464159   
832.500000	1.272143   
833.000000	1.185181   
833.500000	1.185401   
834.000000	1.235401   
834.500000	1.278454   
835.000000	1.286106   
835.500000	1.160431   
836.000000	1.011250   
836.500000	0.904439   
837.000000	0.928757   
837.500000	0.970431   
838.000000	0.862234   
838.500000	0.878803   
839.000000	1.024363   
839.500000	1.233136   
840.000000	1.087636   
840.500000	0.690999   
841.000000	0.344416   
841.500000	0.339530   
842.000000	0.579310   
842.500000	0.739659   
843.000000	0.700242   
843.500000	0.537007   
844.000000	0.538090   
844.500000	0.644045   
845.000000	0.674575   
845.500000	0.658280   
846.000000	0.573015   
846.500000	0.574257   
847.000000	0.474446   
847.500000	0.402810   
848.000000	0.357136   
848.500000	0.502492   
849.000000	0.630719   
849.500000	0.667136   
850.000000	0.565750   
850.500000	0.468393   
851.000000	0.324537   
851.500000	0.128348   
852.000000	0.019409   
852.500000	0.106113   
853.000000	0.230757   
853.500000	0.250674   
854.000000	0.255598   
854.500000	0.251893   
855.000000	0.214825   
855.500000	0.056234   
856.000000	-0.110159  
856.500000	-0.055681  
857.000000	0.119075   
857.500000	0.204022   
858.000000	0.003484   
858.500000	-0.181340  
859.000000	-0.246454  
859.500000	-0.167250  
860.000000	-0.159939  
860.500000	-0.124477  
861.000000	-0.042984  
861.500000	-0.018242  
862.000000	-0.119537  
862.500000	-0.099984  
863.000000	0.093765   
863.500000	0.367060   
864.000000	0.357068   
864.500000	0.192083   
865.000000	-0.013575  
865.500000	-0.054287  
866.000000	-0.088196  
866.500000	-0.077553  
867.000000	-0.074704  
867.500000	-0.038750  
868.000000	0.005674   
868.500000	0.058681   
869.000000	0.068159   
869.500000	-0.044803  
870.000000	-0.157174  
870.500000	-0.042484  
871.000000	0.265621   
871.500000	0.411568   
872.000000	0.260280   
872.500000	-0.000909  
873.000000	-0.104257  
873.500000	-0.078348  
874.000000	-0.038037  
874.500000	0.036863   
875.000000	0.111522   
875.500000	0.104742   
876.000000	-0.004818  
876.500000	-0.129363  
877.000000	-0.091022  
877.500000	0.089469   
878.000000	0.298727   
878.500000	0.279575   
879.000000	0.140121   
879.500000	-0.037954  
880.000000	-0.036553  
880.500000	-0.034613  
881.000000	-0.005022  
881.500000	-0.077833  
882.000000	-0.185000  
882.500000	-0.250818  
883.000000	-0.130530  
883.500000	0.046181   
884.000000	0.114621   
884.500000	0.009492   
885.000000	-0.102257  
885.500000	-0.152628  
886.000000	-0.194325  
886.500000	-0.226060  
887.000000	-0.183522  
887.500000	-0.069136  
888.000000	0.075901   
888.500000	0.152803   
889.000000	0.037242   
889.500000	-0.200022  
890.000000	-0.401196  
890.500000	-0.324318  
891.000000	-0.110439  
891.500000	0.099166   
892.000000	0.066803   
892.500000	-0.018325  
893.000000	-0.130636  
893.500000	-0.109636  
894.000000	-0.056189  
894.500000	-0.029128  
895.000000	-0.083871  
895.500000	-0.115363  
896.000000	-0.060856  
896.500000	-0.051636  
897.000000	-0.129583  
897.500000	-0.177863  

