PE FL                   SPECTRUM    ASCII       PEDS        1.60        
  -1
SAABB1~1.SP
24/04/12
17:20:27.00
24/04/12
17:20:27.00
Jan

897.500000
1









LS55
405.00
5.00
5.00
SCAN
1
20
100
100
0
400
0
1
0
1
5
ON
450 405 
1 0 0
#HDR
-1
-1
#GR
NM

0.00002384185791015625
0.0
450.000000
0.500000
896
8
192.472371
-0.480431
#DATA
450.000000	0.402000   
450.500000	0.073833   
451.000000	-0.008606  
451.500000	0.040893   
452.000000	-0.003628  
452.500000	-0.142431  
453.000000	-0.167689  
453.500000	-0.190803  
454.000000	-0.081606  
454.500000	0.068734   
455.000000	0.207159   
455.500000	0.122977   
456.000000	0.084636   
456.500000	0.116348   
457.000000	0.254659   
457.500000	0.149651   
458.000000	-0.095189  
458.500000	-0.230257  
459.000000	-0.209568  
459.500000	-0.085416  
460.000000	-0.021795  
460.500000	-0.038204  
461.000000	-0.112469  
461.500000	-0.123409  
462.000000	-0.093931  
462.500000	-0.009500  
463.000000	-0.006636  
463.500000	-0.130704  
464.000000	-0.201939  
464.500000	-0.094045  
465.000000	0.064393   
465.500000	0.167931   
466.000000	0.119333   
466.500000	0.114712   
467.000000	0.157757   
467.500000	0.218901   
468.000000	0.120143   
468.500000	-0.044424  
469.000000	-0.109136  
469.500000	-0.025590  
470.000000	0.183060   
470.500000	0.158651   
471.000000	-0.022151  
471.500000	-0.291446  
472.000000	-0.265053  
472.500000	-0.246515  
473.000000	-0.193333  
473.500000	-0.362575  
474.000000	-0.375287  
474.500000	-0.337643  
475.000000	-0.163696  
475.500000	-0.098749  
476.000000	-0.095287  
476.500000	-0.261977  
477.000000	-0.384795  
477.500000	-0.359977  
478.000000	-0.134606  
478.500000	0.052992   
479.000000	0.058113   
479.500000	-0.069075  
480.000000	-0.048568  
480.500000	0.005484   
481.000000	0.024840   
481.500000	-0.050560  
482.000000	-0.132295  
482.500000	-0.099492  
483.000000	0.121810   
483.500000	0.490409   
484.000000	0.636704   
484.500000	0.526492   
485.000000	0.237833   
485.500000	0.155454   
486.000000	0.002484   
486.500000	-0.064295  
487.000000	-0.067045  
487.500000	0.051492   
488.000000	0.086325   
488.500000	-0.002303  
489.000000	-0.135037  
489.500000	-0.194568  
490.000000	-0.133454  
490.500000	-0.044068  
491.000000	0.147462   
491.500000	0.135196   
492.000000	-0.113628  
492.500000	-0.478999  
493.000000	-0.480431  
493.500000	-0.123310  
494.000000	0.263113   
494.500000	0.244545   
495.000000	0.086431   
495.500000	-0.003969  
496.000000	0.043196   
496.500000	0.025560   
497.000000	-0.015280  
497.500000	-0.007484  
498.000000	0.119113   
498.500000	0.249992   
499.000000	0.403477   
499.500000	0.606037   
500.000000	0.692954   
500.500000	0.548553   
501.000000	0.378659   
501.500000	0.381318   
502.000000	0.527022   
502.500000	0.619871   
503.000000	0.674250   
503.500000	0.744719   
504.000000	0.851484   
504.500000	0.791984   
505.000000	0.758462   
505.500000	0.748780   
506.000000	0.847613   
506.500000	0.912590   
507.000000	0.982909   
507.500000	0.983431   
508.000000	0.976590   
508.500000	0.991515   
509.000000	1.101106   
509.500000	1.238492   
510.000000	1.283356   
510.500000	1.097424   
511.000000	0.957500   
511.500000	0.960113   
512.000000	1.203189   
512.500000	1.270492   
513.000000	1.332772   
513.500000	1.312939   
514.000000	1.413984   
514.500000	1.484795   
515.000000	1.633068   
515.500000	1.778280   
516.000000	1.874803   
516.500000	2.048590   
517.000000	2.298878   
517.500000	2.479712   
518.000000	2.255340   
518.500000	1.905871   
519.000000	1.742166   
519.500000	1.980659   
520.000000	2.434015   
520.500000	2.782833   
521.000000	2.869219   
521.500000	2.714250   
522.000000	2.553386   
522.500000	2.446848   
523.000000	2.564431   
523.500000	2.822946   
524.000000	3.022272   
524.500000	3.054787   
525.000000	3.028621   
525.500000	3.212424   
526.000000	3.387734   
526.500000	3.575060   
527.000000	3.715189   
527.500000	4.103098   
528.000000	4.622287   
528.500000	5.156492   
529.000000	5.322340   
529.500000	5.241719   
530.000000	5.330901   
530.500000	5.608825   
531.000000	5.810303   
531.500000	5.847719   
532.000000	6.160628   
532.500000	6.713969   
533.000000	7.165060   
533.500000	7.272128   
534.000000	7.372848   
534.500000	7.657946   
535.000000	8.094772   
535.500000	8.598272   
536.000000	8.818053   
536.500000	8.960015   
537.000000	9.261590   
537.500000	10.041886  
538.000000	10.742424  
538.500000	11.157484  
539.000000	11.253825  
539.500000	11.467727  
540.000000	11.691159  
540.500000	11.911545  
541.000000	12.343553  
541.500000	12.834371  
542.000000	13.052015  
542.500000	12.714613  
543.000000	12.496151  
543.500000	12.639992  
544.000000	12.903681  
544.500000	12.786530  
545.000000	12.328696  
545.500000	11.839643  
546.000000	11.648878  
546.500000	11.814750  
547.000000	12.071507  
547.500000	12.216818  
548.000000	11.945303  
548.500000	11.729560  
549.000000	11.769401  
549.500000	12.064219  
550.000000	12.199492  
550.500000	12.064371  
551.000000	11.947916  
551.500000	11.927863  
552.000000	11.939946  
552.500000	11.770848  
553.000000	12.091234  
553.500000	12.718500  
554.000000	13.434007  
554.500000	13.502901  
555.000000	13.233303  
555.500000	12.865674  
556.000000	13.038931  
556.500000	13.627113  
557.000000	14.319750  
557.500000	14.677325  
558.000000	14.809378  
558.500000	15.231151  
559.000000	15.897431  
559.500000	16.462765  
560.000000	16.477560  
560.500000	16.414340  
561.000000	16.622166  
561.500000	17.354098  
562.000000	17.805696  
562.500000	17.648727  
563.000000	17.454439  
563.500000	18.198946  
564.000000	19.719386  
564.500000	20.840553  
565.000000	20.948787  
565.500000	20.758871  
566.000000	20.953704  
566.500000	21.269856  
567.000000	21.638992  
567.500000	21.938484  
568.000000	22.347787  
568.500000	22.845689  
569.000000	23.304871  
569.500000	23.603060  
570.000000	23.727121  
570.500000	24.072621  
571.000000	24.300068  
571.500000	24.448424  
572.000000	24.449992  
572.500000	25.328159  
573.000000	26.174863  
573.500000	26.598053  
574.000000	26.363159  
574.500000	27.051287  
575.000000	28.105659  
575.500000	29.032886  
576.000000	28.853969  
576.500000	28.729462  
577.000000	28.907030  
577.500000	30.052265  
578.000000	30.708098  
578.500000	31.522287  
579.000000	31.928174  
579.500000	32.730431  
580.000000	33.446795  
580.500000	34.274871  
581.000000	34.849356  
581.500000	35.384166  
582.000000	36.103098  
582.500000	37.002575  
583.000000	38.276181  
583.500000	38.998734  
584.000000	39.649204  
584.500000	40.482901  
585.000000	41.427734  
585.500000	41.882303  
586.000000	41.267568  
586.500000	40.991992  
587.000000	41.709765  
587.500000	43.646734  
588.000000	45.360030  
588.500000	46.714840  
589.000000	47.203568  
589.500000	47.668143  
590.000000	48.012863  
590.500000	49.527462  
591.000000	50.850636  
591.500000	52.039310  
592.000000	52.498143  
592.500000	53.096098  
593.000000	53.487234  
593.500000	54.207280  
594.000000	54.984068  
594.500000	55.653439  
595.000000	56.360954  
595.500000	57.426401  
596.000000	59.581022  
596.500000	61.394060  
597.000000	62.744871  
597.500000	63.362772  
598.000000	64.268409  
598.500000	64.865136  
599.000000	65.555424  
599.500000	65.655166  
600.000000	66.227681  
600.500000	67.436060  
601.000000	69.395840  
601.500000	70.922750  
602.000000	72.325113  
602.500000	73.844696  
603.000000	75.646636  
603.500000	76.816780  
604.000000	78.040128  
604.500000	79.937999  
605.000000	82.354113  
605.500000	83.774401  
606.000000	84.887484  
606.500000	86.151136  
607.000000	87.958833  
607.500000	88.854393  
608.000000	90.012015  
608.500000	91.370424  
609.000000	93.207015  
609.500000	94.162007  
610.000000	95.353954  
610.500000	96.594272  
611.000000	98.363621  
611.500000	99.846340  
612.000000	102.104878 
612.500000	105.077136 
613.000000	107.654484 
613.500000	109.169227 
614.000000	109.941537 
614.500000	110.464181 
615.000000	111.723825 
615.500000	113.453545 
616.000000	115.302477 
616.500000	117.187242 
617.000000	119.340568 
617.500000	121.393886 
618.000000	123.044257 
618.500000	123.964795 
619.000000	125.131666 
619.500000	127.551795 
620.000000	130.470522 
620.500000	132.762780 
621.000000	134.797742 
621.500000	137.001515 
622.000000	139.994598 
622.500000	141.059621 
623.000000	141.120946 
623.500000	140.244363 
624.000000	142.011886 
624.500000	144.734136 
625.000000	148.714848 
625.500000	150.997424 
626.000000	152.790272 
626.500000	154.002681 
627.000000	155.394196 
627.500000	157.241303 
628.000000	159.683280 
628.500000	162.990083 
629.000000	165.484878 
629.500000	166.200075 
630.000000	165.425295 
630.500000	166.153878 
631.000000	169.270212 
631.500000	173.523863 
632.000000	175.865295 
632.500000	175.421257 
633.000000	174.688378 
633.500000	175.941522 
634.000000	178.702719 
634.500000	180.533507 
635.000000	181.494977 
635.500000	182.047234 
636.000000	183.014590 
636.500000	183.259992 
637.000000	184.068492 
637.500000	185.808803 
638.000000	188.328712 
638.500000	190.506159 
639.000000	192.025909 
639.500000	192.472371 
640.000000	191.475098 
640.500000	190.156219 
641.000000	189.848272 
641.500000	190.445280 
642.000000	190.442196 
642.500000	189.960090 
643.000000	190.334431 
643.500000	191.518575 
644.000000	192.245401 
644.500000	191.518568 
645.000000	190.039386 
645.500000	189.683181 
646.000000	189.474083 
646.500000	188.791507 
647.000000	187.466007 
647.500000	186.765818 
648.000000	186.121810 
648.500000	186.565174 
649.000000	186.985174 
649.500000	187.119840 
650.000000	185.777780 
650.500000	184.332287 
651.000000	183.189613 
651.500000	181.796916 
652.000000	179.098856 
652.500000	176.294689 
653.000000	174.530606 
653.500000	172.466295 
654.000000	170.503234 
654.500000	168.485780 
655.000000	166.914636 
655.500000	164.493719 
656.000000	162.291545 
656.500000	160.470962 
657.000000	159.120386 
657.500000	156.756886 
658.000000	153.565189 
658.500000	150.607689 
659.000000	147.359916 
659.500000	144.131265 
660.000000	141.093484 
660.500000	139.028780 
661.000000	136.979757 
661.500000	134.823409 
662.000000	131.809780 
662.500000	128.661318 
663.000000	124.949060 
663.500000	121.861287 
664.000000	119.283522 
664.500000	117.326931 
665.000000	114.956946 
665.500000	111.982386 
666.000000	108.651121 
666.500000	105.733333 
667.000000	103.856833 
667.500000	102.296712 
668.000000	99.748909  
668.500000	96.571401  
669.000000	93.220636  
669.500000	90.569863  
670.000000	87.281962  
670.500000	84.443439  
671.000000	82.021363  
671.500000	81.005704  
672.000000	79.393424  
672.500000	76.545303  
673.000000	73.248833  
673.500000	70.822886  
674.000000	69.112795  
674.500000	66.799704  
675.000000	64.459250  
675.500000	62.643250  
676.000000	61.186249  
676.500000	59.029136  
677.000000	56.708992  
677.500000	55.084962  
678.000000	53.904128  
678.500000	52.163810  
679.000000	50.651098  
679.500000	49.502560  
680.000000	48.629340  
680.500000	47.209469  
681.000000	45.463477  
681.500000	43.779780  
682.000000	42.797659  
682.500000	42.275886  
683.000000	41.209856  
683.500000	39.067621  
684.000000	36.270833  
684.500000	34.657598  
685.000000	34.063568  
685.500000	33.992128  
686.000000	33.340856  
686.500000	32.608636  
687.000000	31.470303  
687.500000	30.294303  
688.000000	28.979015  
688.500000	28.149772  
689.000000	27.463666  
689.500000	26.966651  
690.000000	26.412348  
690.500000	25.809606  
691.000000	24.819128  
691.500000	23.750462  
692.000000	22.420856  
692.500000	21.810750  
693.000000	21.473727  
693.500000	21.543431  
694.000000	21.203530  
694.500000	20.635356  
695.000000	19.899704  
695.500000	19.192750  
696.000000	18.636090  
696.500000	18.090681  
697.000000	17.702643  
697.500000	16.898000  
698.000000	16.165106  
698.500000	15.895757  
699.000000	16.337272  
699.500000	16.604704  
700.000000	16.101371  
700.500000	15.016878  
701.000000	13.940962  
701.500000	13.493371  
702.000000	13.619325  
702.500000	13.910537  
703.000000	13.792818  
703.500000	13.081204  
704.000000	12.431174  
704.500000	12.280734  
705.000000	12.367560  
705.500000	12.196446  
706.000000	11.788598  
706.500000	11.534833  
707.000000	11.555000  
707.500000	11.371204  
708.000000	10.791977  
708.500000	10.182045  
709.000000	9.962166   
709.500000	9.811454   
710.000000	9.557712   
710.500000	9.282371   
711.000000	9.552931   
711.500000	9.953734   
712.000000	9.907878   
712.500000	9.234204   
713.000000	8.888310   
713.500000	9.017295   
714.000000	9.268196   
714.500000	8.974015   
715.000000	8.391143   
715.500000	7.870575   
716.000000	7.673901   
716.500000	7.514340   
717.000000	7.537257   
717.500000	7.490863   
718.000000	7.388121   
718.500000	7.097780   
719.000000	6.855045   
719.500000	6.811530   
720.000000	7.014007   
720.500000	6.991856   
721.000000	6.755946   
721.500000	6.494462   
722.000000	6.654840   
722.500000	6.790999   
723.000000	6.634181   
723.500000	6.192931   
724.000000	5.899803   
724.500000	6.047409   
725.000000	6.265371   
725.500000	6.418075   
726.000000	6.216340   
726.500000	6.115636   
727.000000	6.123704   
727.500000	6.205265   
728.000000	6.034083   
728.500000	5.839143   
729.000000	5.782166   
729.500000	5.764712   
730.000000	5.717992   
730.500000	5.493371   
731.000000	5.152606   
731.500000	4.931053   
732.000000	5.054628   
732.500000	5.517909   
733.000000	5.751272   
733.500000	5.516674   
734.000000	5.047068   
734.500000	4.769409   
735.000000	4.731075   
735.500000	4.761530   
736.000000	4.687219   
736.500000	4.692772   
737.000000	4.929121   
737.500000	5.023174   
738.000000	4.910765   
738.500000	4.572386   
739.000000	4.557037   
739.500000	4.589636   
740.000000	4.621446   
740.500000	4.694992   
741.000000	5.011242   
741.500000	5.164946   
742.000000	4.803878   
742.500000	4.311666   
743.000000	4.096174   
743.500000	4.319484   
744.000000	4.427227   
744.500000	4.239795   
745.000000	3.895537   
745.500000	3.720477   
746.000000	3.779522   
746.500000	3.829234   
747.000000	3.710856   
747.500000	3.487469   
748.000000	3.620750   
748.500000	3.902863   
749.000000	4.126136   
749.500000	3.964575   
750.000000	3.787628   
750.500000	3.662234   
751.000000	3.670810   
751.500000	3.598287   
752.000000	3.565825   
752.500000	3.506075   
753.000000	3.587227   
753.500000	3.844416   
754.000000	4.038886   
754.500000	4.066166   
755.000000	3.856431   
755.500000	3.588272   
756.000000	3.496454   
756.500000	3.527598   
757.000000	3.593537   
757.500000	3.648606   
758.000000	3.683916   
758.500000	3.670250   
759.000000	3.696484   
759.500000	3.697696   
760.000000	3.642840   
760.500000	3.587219   
761.000000	3.400007   
761.500000	3.252553   
762.000000	3.139689   
762.500000	3.159606   
763.000000	3.145303   
763.500000	3.130674   
764.000000	3.132386   
764.500000	3.303734   
765.000000	3.580409   
765.500000	3.625727   
766.000000	3.519537   
766.500000	3.339712   
767.000000	3.178780   
767.500000	3.017174   
768.000000	2.891871   
768.500000	2.931568   
769.000000	3.124401   
769.500000	3.311659   
770.000000	3.200757   
770.500000	3.030401   
771.000000	2.913606   
771.500000	2.970121   
772.000000	3.015143   
772.500000	2.978151   
773.000000	2.856068   
773.500000	2.786840   
774.000000	2.825083   
774.500000	2.885840   
775.000000	2.896348   
775.500000	2.801083   
776.000000	2.811196   
776.500000	2.932886   
777.000000	3.129553   
777.500000	3.082833   
778.000000	2.875477   
778.500000	2.710515   
779.000000	2.716946   
779.500000	2.793916   
780.000000	2.819113   
780.500000	2.829696   
781.000000	2.765590   
781.500000	2.787545   
782.000000	2.776257   
782.500000	2.858257   
783.000000	2.814750   
783.500000	2.839787   
784.000000	2.765325   
784.500000	2.767106   
785.000000	2.714136   
785.500000	2.758083   
786.000000	2.551833   
786.500000	2.366560   
787.000000	2.323492   
787.500000	2.553196   
788.000000	2.674992   
788.500000	2.712000   
789.000000	2.770734   
789.500000	2.840878   
790.000000	2.696113   
790.500000	2.496666   
791.000000	2.418643   
791.500000	2.501416   
792.000000	2.442227   
792.500000	2.285848   
793.000000	2.151409   
793.500000	2.190000   
794.000000	2.236045   
794.500000	2.277946   
795.000000	2.266234   
795.500000	2.226227   
796.000000	2.184871   
796.500000	2.229469   
797.000000	2.399181   
797.500000	2.541871   
798.000000	2.547166   
798.500000	2.454674   
799.000000	2.409174   
799.500000	2.320439   
800.000000	2.217575   
800.500000	2.012189   
801.000000	1.860780   
801.500000	1.778507   
802.000000	1.891492   
802.500000	2.012871   
803.000000	1.979893   
803.500000	1.776492   
804.000000	1.705401   
804.500000	1.837022   
805.000000	1.929378   
805.500000	1.829250   
806.000000	1.798742   
806.500000	1.903022   
807.000000	2.023424   
807.500000	1.873136   
808.000000	1.715674   
808.500000	1.691719   
809.000000	1.853340   
809.500000	1.852583   
810.000000	1.768000   
810.500000	1.582242   
811.000000	1.414053   
811.500000	1.285106   
812.000000	1.322810   
812.500000	1.375295   
813.000000	1.345363   
813.500000	1.160121   
814.000000	1.062166   
814.500000	1.006060   
815.000000	1.021250   
815.500000	1.040030   
816.000000	1.242878   
816.500000	1.316037   
817.000000	1.381810   
817.500000	1.348174   
818.000000	1.444121   
818.500000	1.430333   
819.000000	1.443924   
819.500000	1.392113   
820.000000	1.580174   
820.500000	1.687106   
821.000000	1.817871   
821.500000	1.822886   
822.000000	1.968401   
822.500000	2.204863   
823.000000	2.420196   
823.500000	2.335598   
824.000000	2.171916   
824.500000	2.090946   
825.000000	2.253484   
825.500000	2.366143   
826.000000	2.301545   
826.500000	2.109325   
827.000000	2.033098   
827.500000	2.030128   
828.000000	2.033371   
828.500000	1.862856   
829.000000	1.690931   
829.500000	1.593424   
830.000000	1.655818   
830.500000	1.757234   
831.000000	1.731818   
831.500000	1.440416   
832.000000	1.110871   
832.500000	0.946098   
833.000000	1.033893   
833.500000	1.094575   
834.000000	0.995636   
834.500000	0.901303   
835.000000	0.892151   
835.500000	0.940575   
836.000000	0.891333   
836.500000	0.747219   
837.000000	0.712401   
837.500000	0.851295   
838.000000	1.019734   
838.500000	1.038143   
839.000000	0.971015   
839.500000	0.960401   
840.000000	0.924416   
840.500000	0.860977   
841.000000	0.812840   
841.500000	0.835212   
842.000000	0.755295   
842.500000	0.648166   
843.000000	0.640424   
843.500000	0.751318   
844.000000	0.713909   
844.500000	0.400984   
845.000000	0.207416   
845.500000	0.220696   
846.000000	0.374060   
846.500000	0.490075   
847.000000	0.556553   
847.500000	0.527871   
848.000000	0.445583   
848.500000	0.348537   
849.000000	0.357674   
849.500000	0.333522   
850.000000	0.260371   
850.500000	0.166984   
851.000000	0.218795   
851.500000	0.237537   
852.000000	0.254848   
852.500000	0.132356   
853.000000	0.005734   
853.500000	-0.148924  
854.000000	-0.172651  
854.500000	-0.110636  
855.000000	0.072712   
855.500000	0.142977   
856.000000	0.126643   
856.500000	0.062856   
857.000000	0.111969   
857.500000	0.173750   
858.000000	0.160469   
858.500000	0.133962   
859.000000	0.075734   
859.500000	-0.035825  
860.000000	-0.090151  
860.500000	-0.073537  
861.000000	0.066371   
861.500000	0.059893   
862.000000	0.108492   
862.500000	-0.016492  
863.000000	0.008787   
863.500000	-0.075598  
864.000000	0.032181   
864.500000	0.075371   
865.000000	0.129333   
865.500000	0.070121   
866.000000	-0.003901  
866.500000	0.005219   
867.000000	0.062628   
867.500000	0.128340   
868.000000	0.087659   
868.500000	0.043446   
869.000000	-0.007704  
869.500000	-0.016651  
870.000000	0.040227   
870.500000	0.149386   
871.000000	0.205166   
871.500000	0.144939   
872.000000	-0.075439  
872.500000	-0.240295  
873.000000	-0.299068  
873.500000	-0.203750  
874.000000	-0.180901  
874.500000	-0.129772  
875.000000	-0.068977  
875.500000	0.033787   
876.000000	0.006848   
876.500000	-0.128295  
877.000000	-0.167666  
877.500000	-0.049515  
878.000000	0.136924   
878.500000	0.259181   
879.000000	0.229878   
879.500000	0.066583   
880.000000	-0.024098  
880.500000	-0.065878  
881.000000	-0.070507  
881.500000	-0.074689  
882.000000	-0.017924  
882.500000	0.086446   
883.000000	0.159666   
883.500000	0.090454   
884.000000	0.025492   
884.500000	0.007098   
885.000000	0.012840   
885.500000	0.020636   
886.000000	0.024196   
886.500000	-0.016068  
887.000000	-0.060962  
887.500000	-0.067431  
888.000000	-0.007901  
888.500000	0.007310   
889.000000	-0.079378  
889.500000	-0.155954  
890.000000	-0.124439  
890.500000	-0.030545  
891.000000	-0.002272  
891.500000	-0.008848  
892.000000	-0.006492  
892.500000	0.024757   
893.000000	-0.009893  
893.500000	-0.077553  
894.000000	-0.115742  
894.500000	-0.079166  
895.000000	-0.046893  
895.500000	-0.051022  
896.000000	-0.042340  
896.500000	-0.001143  
897.000000	0.045431   
897.500000	0.007742   

