PE FL                   SPECTRUM    ASCII       PEDS        1.60        
  -1
SA8B85~1.SP
24/04/12
15:32:04.00
24/04/12
15:32:04.00
Jan

897.500000
1









LS55
405.00
5.00
5.00
SCAN
1
20
100
100
0
400
0
1
0
1
5
ON
450 405 
1 0 0
#HDR
-1
-1
#GR
NM

0.00002384185791015625
0.0
450.000000
0.500000
896
8
397.056643
-0.466000
#DATA
450.000000	-0.466000  
450.500000	0.064643   
451.000000	0.392000   
451.500000	0.500068   
452.000000	0.357818   
452.500000	0.353219   
453.000000	0.250136   
453.500000	0.258318   
454.000000	0.102477   
454.500000	0.062545   
455.000000	-0.004356  
455.500000	0.018446   
456.000000	0.072954   
456.500000	0.215348   
457.000000	0.250492   
457.500000	0.196659   
458.000000	0.121113   
458.500000	0.110575   
459.000000	0.175030   
459.500000	0.186818   
460.000000	0.183939   
460.500000	0.218666   
461.000000	0.251454   
461.500000	0.158181   
462.000000	0.022166   
462.500000	-0.071272  
463.000000	-0.084280  
463.500000	-0.042840  
464.000000	0.018121   
464.500000	0.119098   
465.000000	0.198257   
465.500000	0.167022   
466.000000	0.056363   
466.500000	0.040954   
467.000000	0.106651   
467.500000	0.080787   
468.000000	-0.065462  
468.500000	-0.198666  
469.000000	-0.113848  
469.500000	0.112560   
470.000000	0.241984   
470.500000	0.118628   
471.000000	-0.063196  
471.500000	-0.075780  
472.000000	0.128750   
472.500000	0.322939   
473.000000	0.452287   
473.500000	0.526303   
474.000000	0.527295   
474.500000	0.290568   
475.000000	0.060363   
475.500000	-0.053742  
476.000000	0.044499   
476.500000	0.165901   
477.000000	0.262772   
477.500000	0.220325   
478.000000	0.192530   
478.500000	0.318719   
479.000000	0.458257   
479.500000	0.465477   
480.000000	0.353439   
480.500000	0.332674   
481.000000	0.357583   
481.500000	0.276939   
482.000000	0.150765   
482.500000	0.155371   
483.000000	0.315234   
483.500000	0.399598   
484.000000	0.386121   
484.500000	0.359545   
485.000000	0.454886   
485.500000	0.498007   
486.000000	0.417212   
486.500000	0.198780   
487.000000	0.022257   
487.500000	-0.046340  
488.000000	0.002250   
488.500000	0.033090   
489.000000	0.028060   
489.500000	0.064121   
490.000000	0.202393   
490.500000	0.384181   
491.000000	0.439068   
491.500000	0.384106   
492.000000	0.436742   
492.500000	0.387075   
493.000000	0.260659   
493.500000	0.078795   
494.000000	0.123022   
494.500000	0.244492   
495.000000	0.390984   
495.500000	0.422727   
496.000000	0.521780   
496.500000	0.544265   
497.000000	0.544628   
497.500000	0.515265   
498.000000	0.526287   
498.500000	0.586651   
499.000000	0.745530   
499.500000	0.761621   
500.000000	0.648287   
500.500000	0.457878   
501.000000	0.278280   
501.500000	0.248651   
502.000000	0.288234   
502.500000	0.383863   
503.000000	0.406265   
503.500000	0.419901   
504.000000	0.530181   
504.500000	0.736727   
505.000000	0.824280   
505.500000	0.781151   
506.000000	0.695356   
506.500000	0.720378   
507.000000	0.848022   
507.500000	0.992878   
508.000000	1.054681   
508.500000	1.031924   
509.000000	0.927560   
509.500000	0.825212   
510.000000	0.823098   
510.500000	0.964022   
511.000000	1.138462   
511.500000	1.201469   
512.000000	1.201136   
512.500000	1.168696   
513.000000	1.077590   
513.500000	0.949159   
514.000000	1.021583   
514.500000	1.232128   
515.000000	1.372462   
515.500000	1.376909   
516.000000	1.555651   
516.500000	1.841984   
517.000000	1.959007   
517.500000	1.849113   
518.000000	1.891250   
518.500000	1.959462   
519.000000	1.935962   
519.500000	1.737121   
520.000000	1.734181   
520.500000	1.948113   
521.000000	2.135439   
521.500000	2.165507   
522.000000	2.291787   
522.500000	2.486318   
523.000000	2.549689   
523.500000	2.430083   
524.000000	2.313196   
524.500000	2.236280   
525.000000	2.244719   
525.500000	2.417333   
526.000000	2.840946   
526.500000	3.057454   
527.000000	3.087757   
527.500000	3.264840   
528.000000	3.720765   
528.500000	3.942219   
529.000000	3.807681   
529.500000	3.614196   
530.000000	3.948015   
530.500000	4.335234   
531.000000	4.674371   
531.500000	4.656000   
532.000000	4.933393   
532.500000	5.238712   
533.000000	5.639500   
533.500000	5.762537   
534.000000	6.135734   
534.500000	6.423181   
535.000000	6.623507   
535.500000	6.698598   
536.000000	6.874939   
536.500000	7.183916   
537.000000	7.519242   
537.500000	7.705075   
538.000000	7.942803   
538.500000	8.591363   
539.000000	9.462931   
539.500000	10.056772  
540.000000	10.033651  
540.500000	9.706772   
541.000000	9.683810   
541.500000	10.075250  
542.000000	10.818636  
542.500000	11.391166  
543.000000	11.663037  
543.500000	11.596909  
544.000000	11.655924  
544.500000	11.454401  
545.000000	11.365363  
545.500000	11.399227  
546.000000	11.907280  
546.500000	12.117492  
547.000000	12.247863  
547.500000	12.263219  
548.000000	12.794931  
548.500000	13.207409  
549.000000	13.548833  
549.500000	13.075045  
550.000000	12.570272  
550.500000	12.044007  
551.000000	12.194446  
551.500000	12.369924  
552.000000	12.890340  
552.500000	13.088348  
553.000000	13.134053  
553.500000	12.809037  
554.000000	12.748734  
554.500000	13.134212  
555.000000	13.623878  
555.500000	13.748090  
556.000000	13.640348  
556.500000	13.927007  
557.000000	14.423446  
557.500000	14.711818  
558.000000	14.348621  
558.500000	14.009022  
559.000000	14.336295  
559.500000	15.243219  
560.000000	16.444378  
560.500000	16.964000  
561.000000	16.853621  
561.500000	16.454053  
562.000000	16.679151  
562.500000	17.060250  
563.000000	17.587772  
563.500000	18.057030  
564.000000	18.784772  
564.500000	19.240590  
565.000000	19.678893  
565.500000	20.455871  
566.000000	21.332696  
566.500000	21.618015  
567.000000	21.748318  
567.500000	22.221848  
568.000000	23.229719  
568.500000	24.124969  
569.000000	24.708583  
569.500000	25.480393  
570.000000	26.342651  
570.500000	26.858734  
571.000000	26.947719  
571.500000	27.056522  
572.000000	27.674659  
572.500000	28.554560  
573.000000	29.343393  
573.500000	29.624545  
574.000000	30.000659  
574.500000	30.390492  
575.000000	31.484234  
575.500000	32.379901  
576.000000	33.226659  
576.500000	33.563765  
577.000000	33.897810  
577.500000	34.082871  
578.000000	34.462621  
578.500000	35.342742  
579.000000	36.470977  
579.500000	37.404386  
580.000000	37.575500  
580.500000	37.968409  
581.000000	38.933977  
581.500000	40.200287  
582.000000	40.726037  
582.500000	41.131053  
583.000000	41.603568  
583.500000	42.157689  
584.000000	41.766643  
584.500000	42.343280  
585.000000	44.015681  
585.500000	46.421424  
586.000000	47.504318  
586.500000	48.346924  
587.000000	49.184628  
587.500000	50.161878  
588.000000	50.440734  
588.500000	51.497787  
589.000000	53.488992  
589.500000	55.579946  
590.000000	56.411113  
590.500000	56.591007  
591.000000	56.980310  
591.500000	58.652689  
592.000000	60.846083  
592.500000	62.734992  
593.000000	63.905590  
593.500000	65.120795  
594.000000	66.799363  
594.500000	68.406636  
595.000000	69.772727  
595.500000	71.515696  
596.000000	73.182030  
596.500000	74.234537  
597.000000	75.018825  
597.500000	76.477734  
598.000000	78.366007  
598.500000	79.804931  
599.000000	80.764083  
599.500000	82.004863  
600.000000	84.062901  
600.500000	87.081916  
601.000000	89.704803  
601.500000	91.207227  
602.000000	92.032060  
602.500000	93.321840  
603.000000	94.740363  
603.500000	96.177000  
604.000000	97.692446  
604.500000	99.540272  
605.000000	101.620212 
605.500000	103.767590 
606.000000	106.222060 
606.500000	108.602446 
607.000000	110.485719 
607.500000	112.589204 
608.000000	114.865628 
608.500000	116.723803 
609.000000	118.213969 
609.500000	120.329409 
610.000000	123.389250 
610.500000	127.693696 
611.000000	131.389257 
611.500000	133.963651 
612.000000	135.114234 
612.500000	136.696340 
613.000000	138.947348 
613.500000	142.240613 
614.000000	145.149037 
614.500000	148.380507 
615.000000	151.043522 
615.500000	153.627871 
616.000000	155.958977 
616.500000	159.882931 
617.000000	164.161439 
617.500000	167.793378 
618.000000	169.401833 
618.500000	171.395772 
619.000000	174.444121 
619.500000	178.507015 
620.000000	181.754060 
620.500000	184.539446 
621.000000	187.859924 
621.500000	191.947401 
622.000000	196.223492 
622.500000	199.989507 
623.000000	203.150863 
623.500000	205.763651 
624.000000	209.241439 
624.500000	213.300977 
625.000000	218.337181 
625.500000	222.271636 
626.000000	226.011348 
626.500000	228.911484 
627.000000	232.740977 
627.500000	236.974969 
628.000000	242.554575 
628.500000	247.070386 
629.000000	251.417174 
629.500000	255.011734 
630.000000	258.486848 
630.500000	260.858227 
631.000000	264.193287 
631.500000	269.369166 
632.000000	275.097696 
632.500000	279.753090 
633.000000	284.618909 
633.500000	290.532681 
634.000000	296.093500 
634.500000	300.586984 
635.000000	304.411553 
635.500000	307.850030 
636.000000	310.740909 
636.500000	313.012863 
637.000000	315.514030 
637.500000	318.275613 
638.000000	322.701666 
638.500000	326.932583 
639.000000	329.957962 
639.500000	331.767143 
640.000000	336.255280 
640.500000	342.269803 
641.000000	347.439628 
641.500000	349.701757 
642.000000	351.163704 
642.500000	352.596045 
643.000000	355.026621 
643.500000	359.345212 
644.000000	364.977159 
644.500000	369.166295 
645.000000	371.371984 
645.500000	373.007310 
646.000000	376.163492 
646.500000	378.837628 
647.000000	381.610265 
647.500000	382.293992 
648.000000	383.526333 
648.500000	385.163613 
649.000000	388.016431 
649.500000	390.304772 
650.000000	392.325143 
650.500000	394.976863 
651.000000	396.896674 
651.500000	397.056643 
652.000000	394.546371 
652.500000	393.984204 
653.000000	394.802674 
653.500000	394.521265 
654.000000	391.052530 
654.500000	387.409992 
655.000000	388.335053 
655.500000	391.574742 
656.000000	394.064659 
656.500000	393.877825 
657.000000	393.164015 
657.500000	391.412272 
658.000000	389.446015 
658.500000	388.229469 
659.000000	387.058689 
659.500000	385.229363 
660.000000	383.878818 
660.500000	382.932719 
661.000000	381.040189 
661.500000	377.325439 
662.000000	374.517530 
662.500000	372.066856 
663.000000	369.510719 
663.500000	366.040386 
664.000000	363.677765 
664.500000	362.109280 
665.000000	359.415265 
665.500000	355.567287 
666.000000	351.102795 
666.500000	346.423325 
667.000000	340.407977 
667.500000	334.992537 
668.000000	331.045280 
668.500000	328.356204 
669.000000	324.293545 
669.500000	319.319363 
670.000000	314.186053 
670.500000	310.173030 
671.000000	304.960515 
671.500000	300.076553 
672.000000	294.886681 
672.500000	291.439659 
673.000000	287.134560 
673.500000	281.973159 
674.000000	274.982227 
674.500000	269.437780 
675.000000	264.236439 
675.500000	258.465212 
676.000000	251.382515 
676.500000	244.593568 
677.000000	238.840409 
677.500000	233.754590 
678.000000	230.158954 
678.500000	225.099348 
679.000000	218.636022 
679.500000	211.392454 
680.000000	206.313371 
680.500000	202.473492 
681.000000	198.394484 
681.500000	192.593022 
682.000000	185.680386 
682.500000	179.497280 
683.000000	175.114484 
683.500000	172.608045 
684.000000	169.320734 
684.500000	164.592984 
685.000000	159.458143 
685.500000	153.694568 
686.000000	147.656037 
686.500000	142.260340 
687.000000	138.777234 
687.500000	135.322348 
688.000000	130.420750 
688.500000	125.367621 
689.000000	122.651356 
689.500000	121.627871 
690.000000	118.946378 
690.500000	113.993174 
691.000000	109.116121 
691.500000	106.148022 
692.000000	104.252643 
692.500000	101.870674 
693.000000	99.048234  
693.500000	96.293893  
694.000000	93.350803  
694.500000	89.914007  
695.000000	86.506795  
695.500000	83.641659  
696.000000	81.060446  
696.500000	78.322598  
697.000000	75.360583  
697.500000	72.692946  
698.000000	70.202727  
698.500000	67.980242  
699.000000	65.925227  
699.500000	64.820060  
700.000000	63.626045  
700.500000	61.862378  
701.000000	59.102530  
701.500000	57.140015  
702.000000	56.077772  
702.500000	55.085992  
703.000000	53.118272  
703.500000	50.715060  
704.000000	48.366196  
704.500000	47.286719  
705.000000	47.495121  
705.500000	47.641659  
706.000000	45.599939  
706.500000	42.731151  
707.000000	41.094037  
707.500000	41.417848  
708.000000	41.473818  
708.500000	40.142674  
709.000000	37.943250  
709.500000	35.970886  
710.000000	34.891909  
710.500000	34.551477  
711.000000	34.260704  
711.500000	33.372386  
712.000000	31.875386  
712.500000	30.700257  
713.000000	30.004977  
713.500000	29.687121  
714.000000	29.291462  
714.500000	28.921401  
715.000000	28.156939  
715.500000	27.252325  
716.000000	26.443090  
716.500000	26.245568  
717.000000	26.013954  
717.500000	25.046439  
718.000000	23.443939  
718.500000	22.327522  
719.000000	22.278007  
719.500000	22.610742  
720.000000	22.767250  
720.500000	22.001984  
721.000000	21.008537  
721.500000	20.042159  
722.000000	19.978500  
722.500000	19.748795  
723.000000	19.136090  
723.500000	17.988787  
724.000000	17.326628  
724.500000	17.336151  
725.000000	17.271416  
725.500000	16.898795  
726.000000	16.120348  
726.500000	15.662227  
727.000000	15.434780  
727.500000	15.585318  
728.000000	15.450560  
728.500000	14.848098  
729.000000	14.157977  
729.500000	13.684219  
730.000000	13.591257  
730.500000	13.472371  
731.000000	13.163454  
731.500000	12.920030  
732.000000	12.778765  
732.500000	12.853075  
733.000000	12.415825  
733.500000	12.017250  
734.000000	11.576439  
734.500000	11.974568  
735.000000	12.349272  
735.500000	12.326916  
736.000000	11.614136  
736.500000	10.682386  
737.000000	9.919310   
737.500000	9.612348   
738.000000	9.756704   
738.500000	9.896265   
739.000000	9.726212   
739.500000	9.323053   
740.000000	9.370446   
740.500000	9.732924   
741.000000	9.883651   
741.500000	9.536530   
742.000000	9.010166   
742.500000	8.521924   
743.000000	8.206712   
743.500000	7.935765   
744.000000	7.939219   
744.500000	8.071765   
745.000000	8.170340   
745.500000	8.014939   
746.000000	7.821613   
746.500000	7.627522   
747.000000	7.585075   
747.500000	7.413969   
748.000000	7.433189   
748.500000	7.320568   
749.000000	7.297007   
749.500000	6.966795   
750.000000	6.681106   
750.500000	6.634477   
751.000000	6.978962   
751.500000	7.183499   
752.000000	6.888954   
752.500000	6.524742   
753.000000	6.308181   
753.500000	6.284113   
754.000000	6.165583   
754.500000	6.131522   
755.000000	6.142575   
755.500000	5.991318   
756.000000	5.843196   
756.500000	5.797136   
757.000000	5.976613   
757.500000	5.956992   
758.000000	5.748772   
758.500000	5.577075   
759.000000	5.403939   
759.500000	5.344204   
760.000000	5.023227   
760.500000	4.854424   
761.000000	4.918431   
761.500000	5.354681   
762.000000	5.502159   
762.500000	5.243856   
763.000000	4.791454   
763.500000	4.542128   
764.000000	4.618113   
764.500000	4.759606   
765.000000	5.002992   
765.500000	5.113772   
766.000000	4.981098   
766.500000	4.703484   
767.000000	4.644083   
767.500000	4.917689   
768.000000	5.109946   
768.500000	4.790143   
769.000000	4.261946   
769.500000	3.784325   
770.000000	3.706840   
770.500000	3.716787   
771.000000	3.993166   
771.500000	4.193431   
772.000000	4.352340   
772.500000	4.009719   
773.000000	3.775825   
773.500000	3.684287   
774.000000	3.891000   
774.500000	3.844121   
775.000000	3.620037   
775.500000	3.352924   
776.000000	3.221765   
776.500000	3.221242   
777.000000	3.324045   
777.500000	3.595121   
778.000000	3.696530   
778.500000	3.643969   
779.000000	3.417045   
779.500000	3.377121   
780.000000	3.324272   
780.500000	3.263181   
781.000000	3.174598   
781.500000	3.225098   
782.000000	3.315780   
782.500000	3.336545   
783.000000	3.334121   
783.500000	3.324378   
784.000000	3.300886   
784.500000	3.187227   
785.000000	3.103431   
785.500000	3.031803   
786.000000	3.033977   
786.500000	3.035969   
787.000000	3.106356   
787.500000	3.126401   
788.000000	3.092265   
788.500000	2.956287   
789.000000	2.905227   
789.500000	2.907113   
790.000000	2.971280   
790.500000	2.971598   
791.000000	2.957924   
791.500000	2.969492   
792.000000	3.021515   
792.500000	3.059696   
793.000000	3.055954   
793.500000	3.065727   
794.000000	2.970522   
794.500000	2.899553   
795.000000	2.818916   
795.500000	2.755303   
796.000000	2.570386   
796.500000	2.562000   
797.000000	2.623825   
797.500000	2.783128   
798.000000	2.670446   
798.500000	2.598143   
799.000000	2.625212   
799.500000	2.843500   
800.000000	2.895265   
800.500000	2.786113   
801.000000	2.470765   
801.500000	2.249931   
802.000000	2.175030   
802.500000	2.202515   
803.000000	2.191303   
803.500000	2.208174   
804.000000	2.221856   
804.500000	2.280780   
805.000000	2.175424   
805.500000	2.022295   
806.000000	1.938606   
806.500000	2.020643   
807.000000	2.175537   
807.500000	2.224454   
808.000000	2.064878   
808.500000	1.863030   
809.000000	1.851181   
809.500000	1.984234   
810.000000	2.065439   
810.500000	2.171340   
811.000000	2.202212   
811.500000	2.188530   
812.000000	1.863651   
812.500000	1.723727   
813.000000	1.760333   
813.500000	1.909954   
814.000000	1.743992   
814.500000	1.715136   
815.000000	1.837030   
815.500000	2.017757   
816.000000	1.994060   
816.500000	1.721507   
817.000000	1.497340   
817.500000	1.427643   
818.000000	1.590856   
818.500000	1.835303   
819.000000	2.142106   
819.500000	2.310363   
820.000000	2.355772   
820.500000	2.272371   
821.000000	2.242439   
821.500000	2.302636   
822.000000	2.381257   
822.500000	2.558113   
823.000000	2.716727   
823.500000	2.738681   
824.000000	2.432113   
824.500000	2.260484   
825.000000	2.239431   
825.500000	2.361037   
826.000000	2.147242   
826.500000	2.112803   
827.000000	2.185909   
827.500000	2.406689   
828.000000	2.180416   
828.500000	1.775272   
829.000000	1.463984   
829.500000	1.527371   
830.000000	1.708939   
830.500000	1.813090   
831.000000	1.759378   
831.500000	1.547780   
832.000000	1.393356   
832.500000	1.284803   
833.000000	1.292333   
833.500000	1.242810   
834.000000	1.187287   
834.500000	1.122166   
835.000000	1.107750   
835.500000	1.075795   
836.000000	1.071015   
836.500000	1.115712   
837.000000	1.133022   
837.500000	1.104833   
838.000000	1.024340   
838.500000	0.952401   
839.000000	0.802515   
839.500000	0.666439   
840.000000	0.623568   
840.500000	0.805249   
841.000000	0.945098   
841.500000	0.975462   
842.000000	0.838719   
842.500000	0.793257   
843.000000	0.769810   
843.500000	0.772075   
844.000000	0.629257   
844.500000	0.519590   
845.000000	0.509318   
845.500000	0.640174   
846.000000	0.618340   
846.500000	0.511272   
847.000000	0.395696   
847.500000	0.429818   
848.000000	0.492386   
848.500000	0.389159   
849.000000	0.273969   
849.500000	0.221340   
850.000000	0.394734   
850.500000	0.488030   
851.000000	0.537272   
851.500000	0.337280   
852.000000	0.195431   
852.500000	0.135401   
853.000000	0.215606   
853.500000	0.243045   
854.000000	0.146492   
854.500000	0.089666   
855.000000	0.138886   
855.500000	0.219000   
856.000000	0.165598   
856.500000	0.106378   
857.000000	0.100075   
857.500000	0.081992   
858.000000	-0.003871  
858.500000	-0.010250  
859.000000	0.069340   
859.500000	0.159674   
860.000000	0.151371   
860.500000	0.145606   
861.000000	0.155833   
861.500000	0.099712   
862.000000	-0.022356  
862.500000	-0.041015  
863.000000	0.024477   
863.500000	0.062310   
864.000000	0.061378   
864.500000	0.127719   
865.000000	0.242250   
865.500000	0.276909   
866.000000	0.196045   
866.500000	0.135439   
867.000000	0.176727   
867.500000	0.242530   
868.000000	0.259265   
868.500000	0.121462   
869.000000	-0.069954  
869.500000	-0.203780  
870.000000	-0.168068  
870.500000	0.041151   
871.000000	0.277742   
871.500000	0.355340   
872.000000	0.215560   
872.500000	0.103916   
873.000000	0.113825   
873.500000	0.249818   
874.000000	0.241795   
874.500000	0.192765   
875.000000	0.097969   
875.500000	0.063234   
876.000000	0.007492   
876.500000	0.061659   
877.000000	0.080651   
877.500000	0.081712   
878.000000	-0.020454  
878.500000	0.004143   
879.000000	0.079545   
879.500000	0.143530   
880.000000	0.042060   
880.500000	-0.015924  
881.000000	-0.010954  
881.500000	0.051689   
882.000000	0.070098   
882.500000	0.088515   
883.000000	0.119280   
883.500000	0.087863   
884.000000	-0.015143  
884.500000	-0.066295  
885.000000	0.030439   
885.500000	0.183037   
886.000000	0.258037   
886.500000	0.122166   
887.000000	-0.065780  
887.500000	-0.189280  
888.000000	-0.100613  
888.500000	-0.003492  
889.000000	0.093037   
889.500000	0.055787   
890.000000	0.085378   
890.500000	0.052272   
891.000000	0.025204   
891.500000	-0.046598  
892.000000	-0.017045  
892.500000	0.024742   
893.000000	0.041757   
893.500000	-0.003007  
894.000000	0.005590   
894.500000	-0.001356  
895.000000	-0.063075  
895.500000	-0.116681  
896.000000	-0.062310  
896.500000	0.037954   
897.000000	0.027272   
897.500000	-0.072924  

