PE FL                   SPECTRUM    ASCII       PEDS        1.60        
  -1
SA9385~1.SP
24/04/12
16:27:41.00
24/04/12
16:27:41.00
Jan

897.500000
1









LS55
405.00
5.00
5.00
SCAN
1
20
100
100
0
400
0
1
0
1
5
ON
450 405 
1 0 0
#HDR
-1
-1
#GR
NM

0.00002384185791015625
0.0
450.000000
0.500000
896
8
285.297431
-0.384492
#DATA
450.000000	0.469999   
450.500000	0.084696   
451.000000	-0.033954  
451.500000	0.077287   
452.000000	0.246174   
452.500000	0.176371   
453.000000	0.104424   
453.500000	0.136742   
454.000000	0.280045   
454.500000	0.261886   
455.000000	0.020704   
455.500000	-0.235492  
456.000000	-0.262250  
456.500000	-0.069098  
457.000000	0.043712   
457.500000	0.062689   
458.000000	-0.043204  
458.500000	0.048643   
459.000000	0.170916   
459.500000	0.228386   
460.000000	0.107863   
460.500000	0.020159   
461.000000	-0.079734  
461.500000	-0.127250  
462.000000	-0.137659  
462.500000	-0.152204  
463.000000	-0.126136  
463.500000	-0.097674  
464.000000	0.095015   
464.500000	0.188537   
465.000000	0.138522   
465.500000	-0.089901  
466.000000	-0.025212  
466.500000	0.047833   
467.000000	0.095856   
467.500000	-0.093227  
468.000000	-0.096257  
468.500000	0.003249   
469.000000	0.215643   
469.500000	0.199393   
470.000000	0.088727   
470.500000	0.025310   
471.000000	0.102303   
471.500000	0.183522   
472.000000	0.125742   
472.500000	0.005613   
473.000000	0.054886   
473.500000	0.244295   
474.000000	0.425310   
474.500000	0.378636   
475.000000	0.207969   
475.500000	-0.061257  
476.000000	-0.184477  
476.500000	-0.288795  
477.000000	-0.313651  
477.500000	-0.384492  
478.000000	-0.238477  
478.500000	0.030909   
479.000000	0.329053   
479.500000	0.328848   
480.000000	0.238568   
480.500000	0.033916   
481.000000	-0.052166  
481.500000	-0.161007  
482.000000	-0.036234  
482.500000	0.127795   
483.000000	0.303159   
483.500000	0.324954   
484.000000	0.291803   
484.500000	0.191916   
485.000000	0.041454   
485.500000	-0.000795  
486.000000	0.073265   
486.500000	0.254840   
487.000000	0.210628   
487.500000	0.099022   
488.000000	0.075628   
488.500000	0.213492   
489.000000	0.261651   
489.500000	0.157295   
490.000000	0.042363   
490.500000	0.098924   
491.000000	0.192704   
491.500000	0.260871   
492.000000	0.191409   
492.500000	0.139022   
493.000000	0.110378   
493.500000	0.226068   
494.000000	0.289515   
494.500000	0.366469   
495.000000	0.298560   
495.500000	0.250469   
496.000000	0.110325   
496.500000	0.135765   
497.000000	0.219704   
497.500000	0.384053   
498.000000	0.487166   
498.500000	0.577810   
499.000000	0.535962   
499.500000	0.448939   
500.000000	0.470643   
500.500000	0.485659   
501.000000	0.532022   
501.500000	0.509340   
502.000000	0.606704   
502.500000	0.702681   
503.000000	0.723045   
503.500000	0.646719   
504.000000	0.522575   
504.500000	0.442250   
505.000000	0.466689   
505.500000	0.648659   
506.000000	0.766090   
506.500000	0.820022   
507.000000	0.764090   
507.500000	0.673484   
508.000000	0.516068   
508.500000	0.529143   
509.000000	0.708924   
509.500000	0.945507   
510.000000	0.975469   
510.500000	1.023310   
511.000000	1.082280   
511.500000	1.249030   
512.000000	1.282651   
512.500000	1.375378   
513.000000	1.519446   
513.500000	1.664015   
514.000000	1.548303   
514.500000	1.345484   
515.000000	1.276681   
515.500000	1.511545   
516.000000	1.874053   
516.500000	2.083893   
517.000000	2.122318   
517.500000	2.113492   
518.000000	2.150090   
518.500000	2.130128   
519.000000	2.125416   
519.500000	2.182393   
520.000000	2.397810   
520.500000	2.551318   
521.000000	2.563212   
521.500000	2.497704   
522.000000	2.602424   
522.500000	2.599348   
523.000000	2.492431   
523.500000	2.345083   
524.000000	2.483318   
524.500000	2.750106   
525.000000	3.011848   
525.500000	3.165196   
526.000000	3.502174   
526.500000	3.697166   
527.000000	3.644272   
527.500000	3.430053   
528.000000	3.366507   
528.500000	3.591757   
529.000000	3.999462   
529.500000	4.248212   
530.000000	4.457742   
530.500000	4.591325   
531.000000	4.699227   
531.500000	4.729742   
532.000000	4.915568   
532.500000	5.189916   
533.000000	5.644719   
533.500000	6.108356   
534.000000	6.596166   
534.500000	6.803712   
535.000000	6.848424   
535.500000	6.865484   
536.000000	7.020492   
536.500000	7.156295   
537.000000	7.553280   
537.500000	8.050984   
538.000000	8.608598   
538.500000	8.913621   
539.000000	9.387984   
539.500000	9.759136   
540.000000	9.917507   
540.500000	9.897628   
541.000000	10.062856  
541.500000	10.394424  
542.000000	10.722121  
542.500000	11.060500  
543.000000	11.355886  
543.500000	11.557462  
544.000000	11.587984  
544.500000	11.588484  
545.000000	11.513348  
545.500000	11.424992  
546.000000	11.434166  
546.500000	11.573469  
547.000000	11.688878  
547.500000	11.697840  
548.000000	11.586477  
548.500000	11.440856  
549.000000	11.301553  
549.500000	11.331401  
550.000000	11.234780  
550.500000	11.234712  
551.000000	11.280772  
551.500000	11.539886  
552.000000	11.609712  
552.500000	11.495924  
553.000000	11.270803  
553.500000	11.412219  
554.000000	11.780636  
554.500000	12.215280  
555.000000	12.531075  
555.500000	12.567431  
556.000000	12.556090  
556.500000	12.474371  
557.000000	12.409143  
557.500000	12.499871  
558.000000	12.941159  
558.500000	13.313575  
559.000000	13.776651  
559.500000	14.270015  
560.000000	14.933363  
560.500000	15.268348  
561.000000	15.654484  
561.500000	16.142954  
562.000000	16.583083  
562.500000	16.696287  
563.000000	16.930795  
563.500000	17.773477  
564.000000	18.626143  
564.500000	19.146280  
565.000000	19.315696  
565.500000	19.354810  
566.000000	19.150545  
566.500000	19.330340  
567.000000	20.341825  
567.500000	21.546840  
568.000000	21.998037  
568.500000	21.770492  
569.000000	21.772583  
569.500000	22.530757  
570.000000	23.612295  
570.500000	24.551340  
571.000000	25.289484  
571.500000	25.714772  
572.000000	26.235696  
572.500000	26.485522  
573.000000	26.919083  
573.500000	27.165007  
574.000000	28.000363  
574.500000	28.065992  
575.000000	28.126060  
575.500000	27.995401  
576.000000	29.091075  
576.500000	30.189893  
577.000000	30.887575  
577.500000	30.568181  
578.000000	30.687696  
578.500000	31.695257  
579.000000	32.846803  
579.500000	33.281522  
580.000000	33.400931  
580.500000	33.832189  
581.000000	34.644643  
581.500000	35.136416  
582.000000	35.711333  
582.500000	36.444393  
583.000000	37.529212  
583.500000	38.065636  
584.000000	38.758674  
584.500000	39.316310  
585.000000	40.250015  
585.500000	41.261136  
586.000000	42.281810  
586.500000	43.288583  
587.000000	44.634750  
587.500000	45.863318  
588.000000	46.708553  
588.500000	47.021537  
589.000000	47.421681  
589.500000	48.197659  
590.000000	49.274159  
590.500000	50.360280  
591.000000	51.671242  
591.500000	53.027787  
592.000000	54.334136  
592.500000	55.142204  
593.000000	55.427393  
593.500000	55.852553  
594.000000	56.875530  
594.500000	58.466704  
595.000000	60.084416  
595.500000	61.476250  
596.000000	62.352090  
596.500000	63.209803  
597.000000	64.266007  
597.500000	65.732045  
598.000000	66.721287  
598.500000	67.215416  
599.000000	68.200704  
599.500000	70.337825  
600.000000	72.814537  
600.500000	74.453613  
601.000000	75.732545  
601.500000	76.887287  
602.000000	78.757909  
602.500000	79.979946  
603.000000	81.016742  
603.500000	81.419060  
604.000000	82.778484  
604.500000	83.399590  
605.000000	84.588871  
605.500000	86.114045  
606.000000	88.986886  
606.500000	91.777787  
607.000000	93.765765  
607.500000	95.177946  
608.000000	96.712212  
608.500000	98.358401  
609.000000	99.531750  
609.500000	101.341484 
610.000000	103.882287 
610.500000	106.597257 
611.000000	109.101348 
611.500000	110.831234 
612.000000	112.463196 
612.500000	113.356939 
613.000000	114.926863 
613.500000	116.560151 
614.000000	119.120977 
614.500000	121.822424 
615.000000	125.307189 
615.500000	129.089848 
616.000000	132.172446 
616.500000	134.312053 
617.000000	135.697871 
617.500000	138.022530 
618.000000	141.088143 
618.500000	144.867636 
619.000000	147.306098 
619.500000	148.683060 
620.000000	149.426924 
620.500000	150.245537 
621.000000	152.457545 
621.500000	156.076598 
622.000000	159.455924 
622.500000	161.429803 
623.000000	163.042477 
623.500000	165.687590 
624.000000	169.918916 
624.500000	173.774833 
625.000000	177.070083 
625.500000	179.668568 
626.000000	182.501681 
626.500000	184.652712 
627.000000	187.463348 
627.500000	190.601318 
628.000000	195.228825 
628.500000	198.882992 
629.000000	200.783742 
629.500000	201.537909 
630.000000	203.235136 
630.500000	206.432780 
631.000000	210.678734 
631.500000	215.425037 
632.000000	220.200901 
632.500000	224.071121 
633.000000	226.669553 
633.500000	228.942530 
634.000000	232.842424 
634.500000	236.566015 
635.000000	239.076090 
635.500000	239.511704 
636.000000	240.497992 
636.500000	242.626840 
637.000000	246.066621 
637.500000	248.626484 
638.000000	250.740000 
638.500000	252.332022 
639.000000	254.658424 
639.500000	256.828257 
640.000000	259.043469 
640.500000	261.188000 
641.000000	264.352628 
641.500000	267.297196 
642.000000	269.285386 
642.500000	270.689522 
643.000000	272.184954 
643.500000	272.991712 
644.000000	273.095924 
644.500000	274.065113 
645.000000	276.209681 
645.500000	278.291454 
646.000000	279.181007 
646.500000	280.113250 
647.000000	282.678795 
647.500000	284.433007 
648.000000	283.811325 
648.500000	282.585886 
649.000000	282.164674 
649.500000	282.372742 
650.000000	282.940393 
650.500000	283.800780 
651.000000	285.254833 
651.500000	285.297431 
652.000000	284.213136 
652.500000	282.073363 
653.000000	280.823469 
653.500000	279.528106 
654.000000	279.190325 
654.500000	277.951393 
655.000000	276.870742 
655.500000	277.120712 
656.000000	278.404742 
656.500000	278.524901 
657.000000	276.734166 
657.500000	274.335242 
658.000000	271.610462 
658.500000	269.298007 
659.000000	267.051772 
659.500000	264.681007 
660.000000	261.700681 
660.500000	258.596416 
661.000000	257.495575 
661.500000	257.060931 
662.000000	256.085227 
662.500000	252.372931 
663.000000	247.639416 
663.500000	242.597015 
664.000000	239.598477 
664.500000	236.757265 
665.000000	233.982090 
665.500000	230.927159 
666.000000	228.296356 
666.500000	225.647598 
667.000000	222.767689 
667.500000	218.704189 
668.000000	213.459015 
668.500000	207.541446 
669.000000	202.615272 
669.500000	198.905606 
670.000000	196.258462 
670.500000	192.207250 
671.000000	187.406598 
671.500000	182.250583 
672.000000	178.515742 
672.500000	175.280765 
673.000000	172.270530 
673.500000	168.601401 
674.000000	164.348386 
674.500000	159.849522 
675.000000	155.481537 
675.500000	151.943431 
676.000000	147.596454 
676.500000	143.491098 
677.000000	138.756606 
677.500000	134.503962 
678.000000	130.018053 
678.500000	126.402439 
679.000000	123.159924 
679.500000	119.667234 
680.000000	116.428272 
680.500000	113.828886 
681.000000	111.181931 
681.500000	107.550492 
682.000000	104.182696 
682.500000	101.380295 
683.000000	99.042446  
683.500000	96.663416  
684.000000	92.850931  
684.500000	89.504507  
685.000000	86.608318  
685.500000	85.093090  
686.000000	82.407946  
686.500000	79.434545  
687.000000	76.333590  
687.500000	74.622636  
688.000000	72.718765  
688.500000	70.491037  
689.000000	67.712303  
689.500000	64.893590  
690.000000	62.910189  
690.500000	61.904818  
691.000000	60.589545  
691.500000	58.536378  
692.000000	56.661598  
692.500000	55.331749  
693.000000	53.641560  
693.500000	51.677643  
694.000000	50.328901  
694.500000	49.416674  
695.000000	47.758696  
695.500000	45.449530  
696.000000	43.702492  
696.500000	42.989295  
697.000000	42.572886  
697.500000	42.023803  
698.000000	40.641196  
698.500000	39.151371  
699.000000	37.654257  
699.500000	36.678924  
700.000000	35.209037  
700.500000	34.053871  
701.000000	32.982515  
701.500000	32.207484  
702.000000	30.525659  
702.500000	29.252924  
703.000000	28.800560  
703.500000	29.167780  
704.000000	28.452803  
704.500000	27.189787  
705.000000	25.863871  
705.500000	25.211780  
706.000000	24.582734  
706.500000	24.051250  
707.000000	23.468954  
707.500000	22.793636  
708.000000	22.045765  
708.500000	21.365871  
709.000000	21.010507  
709.500000	20.567287  
710.000000	20.186772  
710.500000	19.757181  
711.000000	19.484318  
711.500000	19.125621  
712.000000	18.496196  
712.500000	17.816204  
713.000000	17.343310  
713.500000	17.535848  
714.000000	17.846719  
714.500000	17.835636  
715.000000	17.101765  
715.500000	16.274803  
716.000000	15.864893  
716.500000	15.930030  
717.000000	15.792598  
717.500000	15.095462  
718.000000	14.181681  
718.500000	13.603954  
719.000000	13.386893  
719.500000	13.463462  
720.000000	13.424113  
720.500000	13.311636  
721.000000	12.919795  
721.500000	12.497530  
722.000000	12.237189  
722.500000	12.268106  
723.000000	12.186363  
723.500000	11.814045  
724.000000	11.440795  
724.500000	11.358272  
725.000000	11.171280  
725.500000	10.605810  
726.000000	9.925500   
726.500000	9.623780   
727.000000	9.476416   
727.500000	9.267045   
728.000000	8.996272   
728.500000	8.973696   
729.000000	8.870583   
729.500000	8.734174   
730.000000	8.604666   
730.500000	9.109666   
731.000000	9.379318   
731.500000	9.152212   
732.000000	8.343265   
732.500000	8.140234   
733.000000	8.298575   
733.500000	8.523174   
734.000000	8.257204   
734.500000	7.885939   
735.000000	7.668530   
735.500000	7.570159   
736.000000	7.540015   
736.500000	7.468598   
737.000000	7.281462   
737.500000	7.103272   
738.000000	7.006621   
738.500000	7.057757   
739.000000	7.252659   
739.500000	7.125537   
740.000000	6.595583   
740.500000	5.887598   
741.000000	5.717946   
741.500000	5.854749   
742.000000	6.147666   
742.500000	6.237075   
743.000000	6.369992   
743.500000	6.249545   
744.000000	5.986098   
744.500000	5.800204   
745.000000	5.919424   
745.500000	6.135969   
746.000000	6.091681   
746.500000	5.636515   
747.000000	5.249416   
747.500000	5.118636   
748.000000	5.215348   
748.500000	5.061780   
749.000000	4.826371   
749.500000	4.494704   
750.000000	4.428340   
750.500000	4.514204   
751.000000	4.853181   
751.500000	5.005234   
752.000000	4.978136   
752.500000	4.780333   
753.000000	4.735128   
753.500000	4.640931   
754.000000	4.594500   
754.500000	4.512136   
755.000000	4.472492   
755.500000	4.493984   
756.000000	4.747560   
756.500000	4.894348   
757.000000	4.718113   
757.500000	4.269022   
758.000000	4.005083   
758.500000	3.935537   
759.000000	3.996810   
759.500000	3.903151   
760.000000	4.039212   
760.500000	3.956969   
761.000000	3.728659   
761.500000	3.512742   
762.000000	3.763333   
762.500000	4.160833   
763.000000	4.185318   
763.500000	3.713219   
764.000000	3.305477   
764.500000	3.340265   
765.000000	3.554515   
765.500000	3.660000   
766.000000	3.528757   
766.500000	3.530719   
767.000000	3.938696   
767.500000	4.377742   
768.000000	4.390439   
768.500000	3.977159   
769.000000	3.572439   
769.500000	3.560439   
770.000000	3.653378   
770.500000	3.646878   
771.000000	3.508378   
771.500000	3.419272   
772.000000	3.261098   
772.500000	3.052363   
773.000000	2.939750   
773.500000	3.083189   
774.000000	3.267765   
774.500000	3.331757   
775.000000	3.269219   
775.500000	3.244477   
776.000000	3.189886   
776.500000	3.133106   
777.000000	3.096666   
777.500000	3.208045   
778.000000	3.303598   
778.500000	3.233053   
779.000000	3.040840   
779.500000	2.942606   
780.000000	3.043840   
780.500000	3.178750   
781.000000	3.195340   
781.500000	3.141946   
782.000000	3.019803   
782.500000	2.995795   
783.000000	2.947863   
783.500000	3.007030   
784.000000	3.026174   
784.500000	3.072431   
785.000000	2.995969   
785.500000	2.937931   
786.000000	2.957863   
786.500000	2.945128   
787.000000	2.859181   
787.500000	2.685909   
788.000000	2.692234   
788.500000	2.763659   
789.000000	2.813553   
789.500000	2.781303   
790.000000	2.719734   
790.500000	2.581378   
791.000000	2.516500   
791.500000	2.544136   
792.000000	2.676992   
792.500000	2.735310   
793.000000	2.795742   
793.500000	2.728613   
794.000000	2.527515   
794.500000	2.304946   
795.000000	2.438090   
795.500000	2.791083   
796.000000	2.885954   
796.500000	2.516856   
797.000000	2.088568   
797.500000	1.977454   
798.000000	2.090280   
798.500000	2.301666   
799.000000	2.444000   
799.500000	2.570030   
800.000000	2.470409   
800.500000	2.406749   
801.000000	2.240825   
801.500000	2.262113   
802.000000	2.116909   
802.500000	2.076454   
803.000000	1.906121   
803.500000	1.787265   
804.000000	1.663621   
804.500000	1.740106   
805.000000	1.897053   
805.500000	1.935477   
806.000000	1.814393   
806.500000	1.693636   
807.000000	1.696446   
807.500000	1.625083   
808.000000	1.434651   
808.500000	1.307757   
809.000000	1.391810   
809.500000	1.547462   
810.000000	1.598598   
810.500000	1.550075   
811.000000	1.513272   
811.500000	1.567909   
812.000000	1.690871   
812.500000	1.687628   
813.000000	1.727037   
813.500000	1.803795   
814.000000	1.837477   
814.500000	1.647628   
815.000000	1.473060   
815.500000	1.492280   
816.000000	1.674901   
816.500000	1.636204   
817.000000	1.511575   
817.500000	1.501803   
818.000000	1.691613   
818.500000	1.756856   
819.000000	1.799000   
819.500000	1.647250   
820.000000	1.670371   
820.500000	1.696553   
821.000000	1.858121   
821.500000	1.982007   
822.000000	2.109280   
822.500000	2.025022   
823.000000	1.972030   
823.500000	1.948765   
824.000000	2.136265   
824.500000	2.298446   
825.000000	2.368295   
825.500000	2.330545   
826.000000	2.209136   
826.500000	2.103795   
827.000000	2.064969   
827.500000	2.083984   
828.000000	1.956075   
828.500000	1.896219   
829.000000	1.738992   
829.500000	1.531681   
830.000000	1.228628   
830.500000	1.187674   
831.000000	1.351295   
831.500000	1.431166   
832.000000	1.300068   
832.500000	1.124333   
833.000000	0.996810   
833.500000	0.958325   
834.000000	1.065393   
834.500000	1.086037   
835.000000	0.985659   
835.500000	0.762606   
836.000000	0.794984   
836.500000	0.987492   
837.000000	1.156454   
837.500000	1.093280   
838.000000	1.015500   
838.500000	0.907727   
839.000000	0.891363   
839.500000	0.824613   
840.000000	0.775303   
840.500000	0.666484   
841.000000	0.609409   
841.500000	0.625946   
842.000000	0.812954   
842.500000	0.894878   
843.000000	0.906431   
843.500000	0.881462   
844.000000	0.807787   
844.500000	0.694772   
845.000000	0.448446   
845.500000	0.345893   
846.000000	0.318333   
846.500000	0.338712   
847.000000	0.228969   
847.500000	0.158613   
848.000000	0.152340   
848.500000	0.209984   
849.000000	0.166628   
849.500000	-0.025954  
850.000000	-0.156787  
850.500000	-0.138386  
851.000000	0.043939   
851.500000	0.178037   
852.000000	0.145393   
852.500000	0.110916   
853.000000	0.184181   
853.500000	0.302151   
854.000000	0.318515   
854.500000	0.288022   
855.000000	0.261446   
855.500000	0.207795   
856.000000	0.100295   
856.500000	-0.018598  
857.000000	-0.082022  
857.500000	-0.066613  
858.000000	-0.028575  
858.500000	0.104659   
859.000000	0.206348   
859.500000	0.233492   
860.000000	0.200515   
860.500000	0.139015   
861.000000	0.045015   
861.500000	-0.100818  
862.000000	-0.249568  
862.500000	-0.185015  
863.000000	0.051053   
863.500000	0.185984   
864.000000	0.103636   
864.500000	-0.052000  
865.000000	-0.135962  
865.500000	-0.054393  
866.000000	-0.074234  
866.500000	-0.096787  
867.000000	-0.063500  
867.500000	0.086666   
868.000000	0.155606   
868.500000	0.121825   
869.000000	-0.022060  
869.500000	-0.064856  
870.000000	-0.053977  
870.500000	-0.067174  
871.000000	-0.095204  
871.500000	-0.089219  
872.000000	0.001628   
872.500000	0.057954   
873.000000	0.002560   
873.500000	-0.120212  
874.000000	-0.121143  
874.500000	-0.030439  
875.000000	0.039750   
875.500000	0.026727   
876.000000	-0.031659  
876.500000	-0.071666  
877.000000	-0.048189  
877.500000	0.046856   
878.000000	0.112856   
878.500000	0.215136   
879.000000	0.272780   
879.500000	0.295939   
880.000000	0.149734   
880.500000	0.087553   
881.000000	0.081878   
881.500000	0.142075   
882.000000	0.073734   
882.500000	0.002583   
883.000000	-0.010750  
883.500000	-0.028962  
884.000000	-0.141772  
884.500000	-0.265848  
885.000000	-0.236219  
885.500000	-0.093924  
886.000000	0.063871   
886.500000	0.171681   
887.000000	0.211128   
887.500000	0.251037   
888.000000	0.188530   
888.500000	0.126272   
889.000000	-0.000984  
889.500000	-0.061969  
890.000000	-0.117856  
890.500000	-0.062916  
891.000000	-0.000242  
891.500000	0.104606   
892.000000	0.157553   
892.500000	0.198196   
893.000000	0.200560   
893.500000	0.167931   
894.000000	0.074613   
894.500000	-0.025431  
895.000000	-0.059257  
895.500000	-0.018719  
896.000000	-0.018484  
896.500000	-0.058992  
897.000000	-0.088227  
897.500000	-0.072401  

