PE FL                   SPECTRUM    ASCII       PEDS        1.60        
  -1
SAA3C9~1.SP
24/04/12
16:53:21.00
24/04/12
16:53:21.00
Jan

897.500000
1









LS55
405.00
5.00
5.00
SCAN
1
20
100
100
0
400
0
1
0
1
5
ON
450 405 
1 0 0
#HDR
-1
-1
#GR
NM

0.00002384185791015625
0.0
450.000000
0.500000
896
8
227.338219
-0.667000
#DATA
450.000000	-0.667000  
450.500000	-0.366871  
451.000000	-0.253659  
451.500000	-0.169537  
452.000000	0.032704   
452.500000	0.274696   
453.000000	0.259000   
453.500000	0.017250   
454.000000	-0.322515  
454.500000	-0.329113  
455.000000	-0.047689  
455.500000	0.350265   
456.000000	0.407409   
456.500000	0.290522   
457.000000	0.179371   
457.500000	0.261772   
458.000000	0.247628   
458.500000	0.211765   
459.000000	0.112000   
459.500000	0.081234   
460.000000	-0.059386  
460.500000	0.055325   
461.000000	0.213893   
461.500000	0.367257   
462.000000	0.162696   
462.500000	-0.088909  
463.000000	-0.168545  
463.500000	-0.043810  
464.000000	0.063204   
464.500000	0.013765   
465.000000	-0.004310  
465.500000	0.015303   
466.000000	0.240848   
466.500000	0.319219   
467.000000	0.286757   
467.500000	0.044712   
468.000000	-0.038590  
468.500000	-0.017340  
469.000000	0.148606   
469.500000	0.112863   
470.000000	0.014386   
470.500000	-0.037651  
471.000000	0.081530   
471.500000	0.150742   
472.000000	0.142651   
472.500000	0.050803   
473.000000	0.061181   
473.500000	-0.038984  
474.000000	-0.131318  
474.500000	-0.146045  
475.000000	0.073507   
475.500000	0.081590   
476.000000	0.048045   
476.500000	-0.048477  
477.000000	-0.035159  
477.500000	-0.091356  
478.000000	-0.154886  
478.500000	0.003143   
479.000000	0.236613   
479.500000	0.369068   
480.000000	0.304060   
480.500000	0.231363   
481.000000	0.034568   
481.500000	-0.034477  
482.000000	0.031515   
482.500000	0.250598   
483.000000	0.329128   
483.500000	0.275477   
484.000000	0.143643   
484.500000	0.022825   
485.000000	-0.161931  
485.500000	-0.240583  
486.000000	-0.141530  
486.500000	0.131969   
487.000000	0.311848   
487.500000	0.367962   
488.000000	0.316257   
488.500000	0.118333   
489.000000	-0.108537  
489.500000	-0.305272  
490.000000	-0.220227  
490.500000	-0.180492  
491.000000	-0.188030  
491.500000	-0.317893  
492.000000	-0.203901  
492.500000	-0.095439  
493.000000	0.078310   
493.500000	0.187363   
494.000000	0.271560   
494.500000	0.349189   
495.000000	0.447674   
495.500000	0.541681   
496.000000	0.445356   
496.500000	0.290068   
497.000000	0.160734   
497.500000	0.178037   
498.000000	0.144303   
498.500000	0.179295   
499.000000	0.293113   
499.500000	0.423545   
500.000000	0.480628   
500.500000	0.506568   
501.000000	0.467969   
501.500000	0.404878   
502.000000	0.319848   
502.500000	0.309924   
503.000000	0.345303   
503.500000	0.516318   
504.000000	0.565174   
504.500000	0.599462   
505.000000	0.545068   
505.500000	0.678659   
506.000000	0.792666   
506.500000	0.988825   
507.000000	1.139098   
507.500000	1.270969   
508.000000	1.200098   
508.500000	1.091484   
509.000000	1.072492   
509.500000	1.050606   
510.000000	1.010810   
510.500000	1.047818   
511.000000	1.200113   
511.500000	1.268090   
512.000000	1.267159   
512.500000	1.254416   
513.000000	1.298553   
513.500000	1.366689   
514.000000	1.411431   
514.500000	1.522878   
515.000000	1.518772   
515.500000	1.499962   
516.000000	1.500424   
516.500000	1.651750   
517.000000	1.921371   
517.500000	2.215719   
518.000000	2.415598   
518.500000	2.352060   
519.000000	2.092439   
519.500000	1.755462   
520.000000	1.783984   
520.500000	2.110098   
521.000000	2.445174   
521.500000	2.606401   
522.000000	2.584007   
522.500000	2.544568   
523.000000	2.525386   
523.500000	2.616242   
524.000000	2.820734   
524.500000	2.959863   
525.000000	2.972977   
525.500000	2.933234   
526.000000	2.977856   
526.500000	3.109083   
527.000000	3.409780   
527.500000	3.731613   
528.000000	3.900340   
528.500000	3.974356   
529.000000	4.131689   
529.500000	4.352878   
530.000000	4.519424   
530.500000	4.566356   
531.000000	4.779833   
531.500000	5.236469   
532.000000	6.002984   
532.500000	6.546401   
533.000000	6.864765   
533.500000	6.848310   
534.000000	6.920651   
534.500000	6.938022   
535.000000	7.224651   
535.500000	7.675984   
536.000000	8.275803   
536.500000	8.722249   
537.000000	8.942462   
537.500000	8.998946   
538.000000	8.965166   
538.500000	9.290045   
539.000000	9.968416   
539.500000	10.700651  
540.000000	11.036469  
540.500000	11.168712  
541.000000	11.523742  
541.500000	12.063613  
542.000000	12.301204  
542.500000	11.830439  
543.000000	11.181113  
543.500000	10.932113  
544.000000	11.278818  
544.500000	11.849856  
545.000000	12.194712  
545.500000	12.098840  
546.000000	11.512916  
546.500000	10.954280  
547.000000	10.849681  
547.500000	11.244734  
548.000000	11.452666  
548.500000	11.460962  
549.000000	11.318537  
549.500000	11.265818  
550.000000	11.282090  
550.500000	11.615681  
551.000000	12.044757  
551.500000	12.143916  
552.000000	11.653424  
552.500000	11.180901  
553.000000	11.084750  
553.500000	11.440795  
554.000000	11.683674  
554.500000	12.071621  
555.000000	12.246750  
555.500000	12.526621  
556.000000	12.697530  
556.500000	13.026053  
557.000000	13.118878  
557.500000	13.192075  
558.000000	13.237984  
558.500000	13.618363  
559.000000	14.026431  
559.500000	14.275030  
560.000000	14.299500  
560.500000	14.726424  
561.000000	15.571454  
561.500000	16.550212  
562.000000	16.838030  
562.500000	16.653409  
563.000000	16.642704  
563.500000	16.934386  
564.000000	17.337083  
564.500000	17.465962  
565.000000	18.122628  
565.500000	18.902151  
566.000000	19.915704  
566.500000	20.042022  
567.000000	20.047734  
567.500000	19.929553  
568.000000	20.609045  
568.500000	21.325303  
569.000000	22.264401  
569.500000	22.724257  
570.000000	23.426265  
570.500000	23.652015  
571.000000	24.073780  
571.500000	24.308159  
572.000000	25.075303  
572.500000	25.316333  
573.000000	25.515939  
573.500000	25.570325  
574.000000	26.478015  
574.500000	27.425606  
575.000000	27.934560  
575.500000	28.084575  
576.000000	28.441409  
576.500000	29.317196  
577.000000	29.901090  
577.500000	30.373818  
578.000000	30.624590  
578.500000	30.702037  
579.000000	30.661250  
579.500000	31.119295  
580.000000	32.316378  
580.500000	32.929265  
581.000000	33.283757  
581.500000	33.788772  
582.000000	34.996803  
582.500000	35.681113  
583.000000	35.878977  
583.500000	36.130772  
584.000000	37.023954  
584.500000	38.314560  
585.000000	39.698886  
585.500000	41.073674  
586.000000	41.684992  
586.500000	42.064409  
587.000000	42.379651  
587.500000	42.859522  
588.000000	43.539984  
588.500000	44.389674  
589.000000	45.765143  
589.500000	47.033401  
590.000000	47.499575  
590.500000	47.685386  
591.000000	49.007037  
591.500000	50.855916  
592.000000	52.528242  
592.500000	53.167901  
593.000000	53.388848  
593.500000	54.054242  
594.000000	55.074484  
594.500000	56.605068  
595.000000	57.893939  
595.500000	58.619537  
596.000000	58.949363  
596.500000	59.863234  
597.000000	61.197462  
597.500000	62.177719  
598.000000	62.402719  
598.500000	63.340166  
599.000000	65.407333  
599.500000	67.032977  
600.000000	66.750606  
600.500000	66.377840  
601.000000	67.971795  
601.500000	71.269924  
602.000000	73.672340  
602.500000	74.456477  
603.000000	74.790393  
603.500000	76.237825  
604.000000	78.296871  
604.500000	79.886749  
605.000000	80.707924  
605.500000	81.642681  
606.000000	83.202916  
606.500000	85.083939  
607.000000	86.784113  
607.500000	88.597924  
608.000000	90.173553  
608.500000	92.066931  
609.000000	93.817060  
609.500000	95.586000  
610.000000	96.570045  
610.500000	97.601484  
611.000000	98.798537  
611.500000	100.777022 
612.000000	102.482431 
612.500000	104.677681 
613.000000	106.274234 
613.500000	107.385143 
614.000000	108.198787 
614.500000	110.203280 
615.000000	112.569484 
615.500000	114.725636 
616.000000	116.398704 
616.500000	118.635931 
617.000000	121.464075 
617.500000	123.620409 
618.000000	124.776553 
618.500000	126.550371 
619.000000	129.324287 
619.500000	133.024469 
620.000000	135.716878 
620.500000	137.824075 
621.000000	139.589143 
621.500000	142.076136 
622.000000	144.487537 
622.500000	145.819568 
623.000000	146.684469 
623.500000	147.863196 
624.000000	151.024568 
624.500000	153.663318 
625.000000	156.371969 
625.500000	158.035090 
626.000000	160.565712 
626.500000	162.826901 
627.000000	166.137507 
627.500000	168.983257 
628.000000	171.198393 
628.500000	172.571030 
629.000000	175.428287 
629.500000	178.481159 
630.000000	179.858378 
630.500000	180.808500 
631.000000	182.581681 
631.500000	185.525409 
632.000000	187.374590 
632.500000	189.218219 
633.000000	191.545500 
633.500000	194.781212 
634.000000	196.945007 
634.500000	198.423166 
635.000000	200.808045 
635.500000	203.565795 
636.000000	205.507045 
636.500000	205.779507 
637.000000	207.036606 
637.500000	209.449568 
638.000000	211.341363 
638.500000	211.380446 
639.000000	211.197977 
639.500000	212.864022 
640.000000	216.348469 
640.500000	218.875257 
641.000000	220.375848 
641.500000	220.303621 
642.000000	220.920681 
642.500000	220.247924 
643.000000	220.088060 
643.500000	219.724795 
644.000000	221.320886 
644.500000	222.710719 
645.000000	224.317568 
645.500000	225.399803 
646.000000	225.622659 
646.500000	224.461909 
647.000000	223.916340 
647.500000	225.098416 
648.000000	227.338219 
648.500000	226.592007 
649.000000	225.286840 
649.500000	224.613174 
650.000000	225.719128 
650.500000	224.677969 
651.000000	222.951181 
651.500000	221.795181 
652.000000	221.441613 
652.500000	219.979575 
653.000000	218.293090 
653.500000	217.687363 
654.000000	217.539250 
654.500000	216.917833 
655.000000	215.508969 
655.500000	212.926454 
656.000000	210.703659 
656.500000	208.876992 
657.000000	209.128121 
657.500000	208.511234 
658.000000	206.724204 
658.500000	202.547530 
659.000000	198.985712 
659.500000	195.848492 
660.000000	194.199522 
660.500000	192.710143 
661.000000	191.161553 
661.500000	188.446484 
662.000000	184.737765 
662.500000	181.222007 
663.000000	177.895606 
663.500000	174.128606 
664.000000	170.232621 
664.500000	167.311893 
665.000000	165.054318 
665.500000	161.963674 
666.000000	158.906939 
666.500000	155.875916 
667.000000	153.397606 
667.500000	149.952871 
668.000000	146.370939 
668.500000	142.628621 
669.000000	139.273621 
669.500000	136.199280 
670.000000	132.573916 
670.500000	129.806803 
671.000000	127.173621 
671.500000	125.218704 
672.000000	121.469340 
672.500000	118.016151 
673.000000	114.264075 
673.500000	111.356204 
674.000000	106.738015 
674.500000	102.873303 
675.000000	99.728962  
675.500000	98.285954  
676.000000	96.161401  
676.500000	93.712575  
677.000000	90.160136  
677.500000	86.987348  
678.000000	83.904530  
678.500000	81.911598  
679.000000	80.034856  
679.500000	77.885007  
680.000000	75.026901  
680.500000	73.069909  
681.000000	71.509363  
681.500000	69.971803  
682.000000	67.175053  
682.500000	64.678878  
683.000000	62.912325  
683.500000	61.918393  
684.000000	60.745780  
684.500000	58.488636  
685.000000	55.707280  
685.500000	52.841090  
686.000000	51.398863  
686.500000	50.224227  
687.000000	49.159674  
687.500000	47.335598  
688.000000	45.896840  
688.500000	44.532712  
689.000000	43.510636  
689.500000	42.112234  
690.000000	40.520462  
690.500000	39.187939  
691.000000	38.670878  
691.500000	37.937242  
692.000000	36.535030  
692.500000	35.227484  
693.000000	34.704409  
693.500000	34.428946  
694.000000	33.674090  
694.500000	32.684515  
695.000000	31.579439  
695.500000	30.346015  
696.000000	29.049446  
696.500000	28.283545  
697.000000	27.675757  
697.500000	26.739030  
698.000000	25.546946  
698.500000	24.424560  
699.000000	23.418151  
699.500000	22.798037  
700.000000	22.641886  
700.500000	22.544469  
701.000000	21.992424  
701.500000	21.033500  
702.000000	20.321280  
702.500000	19.983742  
703.000000	19.804863  
703.500000	19.271166  
704.000000	18.647568  
704.500000	17.704325  
705.000000	17.150401  
705.500000	16.591560  
706.000000	16.355606  
706.500000	15.797878  
707.000000	15.766765  
707.500000	15.942424  
708.000000	16.397962  
708.500000	15.850696  
709.000000	14.672196  
709.500000	13.684068  
710.000000	13.544159  
710.500000	13.394340  
711.000000	12.933227  
711.500000	12.627765  
712.000000	12.653825  
712.500000	12.705227  
713.000000	12.228181  
713.500000	11.864856  
714.000000	11.608257  
714.500000	11.457787  
715.000000	11.079325  
715.500000	10.834053  
716.000000	10.734189  
716.500000	10.738772  
717.000000	10.601446  
717.500000	10.306863  
718.000000	10.183378  
718.500000	10.056734  
719.000000	10.072022  
719.500000	9.989121   
720.000000	9.883613   
720.500000	9.710045   
721.000000	9.425704   
721.500000	9.302477   
722.000000	9.335742   
722.500000	9.197818   
723.000000	8.671583   
723.500000	8.215174   
724.000000	8.094848   
724.500000	8.140401   
725.000000	8.018363   
725.500000	7.766666   
726.000000	7.565606   
726.500000	7.387969   
727.000000	7.233060   
727.500000	7.114939   
728.000000	6.969568   
728.500000	6.830446   
729.000000	6.934772   
729.500000	7.244696   
730.000000	7.521318   
730.500000	7.277696   
731.000000	6.893181   
731.500000	6.514287   
732.000000	6.236469   
732.500000	5.831992   
733.000000	5.710750   
733.500000	5.952545   
734.000000	6.250295   
734.500000	6.149121   
735.000000	5.874045   
735.500000	5.684401   
736.000000	5.522166   
736.500000	5.257249   
737.000000	5.189560   
737.500000	5.134871   
738.000000	5.047318   
738.500000	4.931181   
739.000000	5.137477   
739.500000	5.464068   
740.000000	5.706037   
740.500000	5.660583   
741.000000	5.477371   
741.500000	5.145090   
742.000000	4.884712   
742.500000	4.814060   
743.000000	4.911378   
743.500000	4.894780   
744.000000	4.739075   
744.500000	4.830356   
745.000000	5.043287   
745.500000	5.088962   
746.000000	4.695189   
746.500000	4.376507   
747.000000	4.305666   
747.500000	4.612553   
748.000000	4.788053   
748.500000	4.631780   
749.000000	4.227439   
749.500000	3.972537   
750.000000	3.945189   
750.500000	4.112431   
751.000000	4.284962   
751.500000	4.497151   
752.000000	4.439522   
752.500000	4.133757   
753.000000	3.720856   
753.500000	3.647545   
754.000000	3.787492   
754.500000	4.041499   
755.000000	4.149659   
755.500000	4.057598   
756.000000	3.948121   
756.500000	3.856363   
757.000000	3.857386   
757.500000	3.883848   
758.000000	3.922962   
758.500000	3.837537   
759.000000	3.810916   
759.500000	3.761863   
760.000000	3.757977   
760.500000	3.518856   
761.000000	3.236621   
761.500000	3.136878   
762.000000	3.272863   
762.500000	3.354015   
763.000000	3.474416   
763.500000	3.641924   
764.000000	3.708454   
764.500000	3.545765   
765.000000	3.362500   
765.500000	3.391265   
766.000000	3.500909   
766.500000	3.425401   
767.000000	3.318833   
767.500000	3.292795   
768.000000	3.335204   
768.500000	3.314977   
769.000000	3.295681   
769.500000	3.229090   
770.000000	3.205378   
770.500000	3.170250   
771.000000	3.205772   
771.500000	3.153204   
772.000000	2.944522   
772.500000	2.773106   
773.000000	2.855287   
773.500000	3.167265   
774.000000	3.326053   
774.500000	3.273954   
775.000000	3.101946   
775.500000	3.019280   
776.000000	2.971545   
776.500000	3.020681   
777.000000	3.145704   
777.500000	3.201780   
778.000000	3.137204   
778.500000	3.016696   
779.000000	3.022969   
779.500000	3.124674   
780.000000	3.155227   
780.500000	2.994310   
781.000000	2.787810   
781.500000	2.710893   
782.000000	2.795636   
782.500000	2.941856   
783.000000	2.973174   
783.500000	2.936439   
784.000000	2.767356   
784.500000	2.528212   
785.000000	2.303886   
785.500000	2.185909   
786.000000	2.257606   
786.500000	2.348598   
787.000000	2.492636   
787.500000	2.561242   
788.000000	2.685606   
788.500000	2.790893   
789.000000	2.826250   
789.500000	2.668962   
790.000000	2.497030   
790.500000	2.451575   
791.000000	2.487045   
791.500000	2.470893   
792.000000	2.471825   
792.500000	2.498409   
793.000000	2.572621   
793.500000	2.520522   
794.000000	2.576772   
794.500000	2.441628   
795.000000	2.237818   
795.500000	2.021128   
796.000000	2.021484   
796.500000	2.109810   
797.000000	2.170590   
797.500000	2.253272   
798.000000	2.251734   
798.500000	2.193439   
799.000000	2.084886   
799.500000	2.154621   
800.000000	2.227613   
800.500000	2.191560   
801.000000	1.955909   
801.500000	1.754833   
802.000000	1.810977   
802.500000	2.010257   
803.000000	2.151022   
803.500000	2.066659   
804.000000	2.033977   
804.500000	1.975946   
805.000000	1.832704   
805.500000	1.565553   
806.000000	1.507219   
806.500000	1.479333   
807.000000	1.460810   
807.500000	1.402356   
808.000000	1.491280   
808.500000	1.651348   
809.000000	1.852742   
809.500000	1.910575   
810.000000	1.800189   
810.500000	1.682704   
811.000000	1.710386   
811.500000	1.863856   
812.000000	1.819121   
812.500000	1.706136   
813.000000	1.616696   
813.500000	1.682765   
814.000000	1.697636   
814.500000	1.747848   
815.000000	1.701840   
815.500000	1.587946   
816.000000	1.365143   
816.500000	1.360674   
817.000000	1.482189   
817.500000	1.674477   
818.000000	1.740575   
818.500000	1.871696   
819.000000	1.920166   
819.500000	1.897318   
820.000000	1.646181   
820.500000	1.620787   
821.000000	1.685772   
821.500000	1.799325   
822.000000	1.795530   
822.500000	1.886727   
823.000000	2.035333   
823.500000	2.188530   
824.000000	2.257643   
824.500000	2.334166   
825.000000	2.412590   
825.500000	2.429992   
826.000000	2.386045   
826.500000	2.339204   
827.000000	2.348750   
827.500000	2.360704   
828.000000	2.246727   
828.500000	2.058477   
829.000000	1.718863   
829.500000	1.319984   
830.000000	1.079424   
830.500000	1.087424   
831.000000	1.257060   
831.500000	1.293318   
832.000000	1.252409   
832.500000	1.366803   
833.000000	1.568916   
833.500000	1.618893   
834.000000	1.431393   
834.500000	1.232696   
835.000000	1.117825   
835.500000	1.143636   
836.000000	1.114598   
836.500000	0.987712   
837.000000	0.870484   
837.500000	0.814204   
838.000000	0.853234   
838.500000	0.887189   
839.000000	0.858545   
839.500000	0.752590   
840.000000	0.563924   
840.500000	0.512886   
841.000000	0.620454   
841.500000	0.825000   
842.000000	0.817765   
842.500000	0.833651   
843.000000	0.846893   
843.500000	0.811068   
844.000000	0.565863   
844.500000	0.396916   
845.000000	0.409999   
845.500000	0.551871   
846.000000	0.588219   
846.500000	0.618628   
847.000000	0.599492   
847.500000	0.453984   
848.000000	0.254636   
848.500000	0.149136   
849.000000	0.288106   
849.500000	0.470257   
850.000000	0.542431   
850.500000	0.358545   
851.000000	0.183500   
851.500000	0.088992   
852.000000	0.166295   
852.500000	0.218742   
853.000000	0.187257   
853.500000	0.145401   
854.000000	0.259621   
854.500000	0.363022   
855.000000	0.344227   
855.500000	0.119840   
856.000000	-0.037242  
856.500000	-0.071136  
857.000000	-0.012363  
857.500000	-0.028272  
858.000000	-0.092295  
858.500000	-0.136719  
859.000000	-0.111242  
859.500000	0.001500   
860.000000	0.041037   
860.500000	-0.021386  
861.000000	-0.141583  
861.500000	-0.186007  
862.000000	-0.161416  
862.500000	-0.057545  
863.000000	0.057696   
863.500000	0.113446   
864.000000	0.097871   
864.500000	0.058227   
865.000000	0.038424   
865.500000	0.050787   
866.000000	0.009742   
866.500000	0.022977   
867.000000	0.029393   
867.500000	0.026128   
868.000000	-0.098196  
868.500000	-0.178696  
869.000000	-0.199992  
869.500000	-0.093810  
870.000000	-0.024090  
870.500000	-0.004742  
871.000000	-0.070242  
871.500000	-0.151325  
872.000000	-0.140333  
872.500000	-0.028674  
873.000000	0.033204   
873.500000	-0.005469  
874.000000	-0.068189  
874.500000	-0.028136  
875.000000	-0.008090  
875.500000	-0.011537  
876.000000	-0.091462  
876.500000	-0.104181  
877.000000	-0.101030  
877.500000	-0.060825  
878.000000	-0.063287  
878.500000	-0.163477  
879.000000	-0.241060  
879.500000	-0.222068  
880.000000	-0.034075  
880.500000	0.046545   
881.000000	0.048871   
881.500000	-0.098257  
882.000000	-0.121636  
882.500000	-0.188492  
883.000000	-0.206295  
883.500000	-0.211939  
884.000000	-0.124606  
884.500000	-0.080871  
885.000000	-0.083962  
885.500000	-0.092409  
886.000000	-0.050462  
886.500000	0.007962   
887.000000	0.001916   
887.500000	-0.059409  
888.000000	-0.143151  
888.500000	-0.192946  
889.000000	-0.177166  
889.500000	-0.116886  
890.000000	-0.051265  
890.500000	-0.001818  
891.000000	-0.010121  
891.500000	-0.072893  
892.000000	-0.117909  
892.500000	-0.092143  
893.000000	-0.017318  
893.500000	0.056545   
894.000000	0.072378   
894.500000	0.072287   
895.000000	0.087348   
895.500000	0.118363   
896.000000	0.109393   
896.500000	0.049265   
897.000000	-0.040621  
897.500000	-0.142530  

