PE FL                   SPECTRUM    ASCII       PEDS        1.60        
  -1
SAA3B9~1.SP
24/04/12
16:50:30.00
24/04/12
16:50:30.00
Jan

897.500000
1









LS55
405.00
5.00
5.00
SCAN
1
20
100
100
0
400
0
1
0
1
5
ON
450 405 
1 0 0
#HDR
-1
-1
#GR
NM

0.00002384185791015625
0.0
450.000000
0.500000
896
8
227.504257
-0.435719
#DATA
450.000000	0.343000   
450.500000	-0.213507  
451.000000	-0.435719  
451.500000	-0.335772  
452.000000	-0.191333  
452.500000	-0.179568  
453.000000	-0.215848  
453.500000	-0.282219  
454.000000	-0.296916  
454.500000	-0.259878  
455.000000	-0.072795  
455.500000	0.139909   
456.000000	0.298196   
456.500000	0.302780   
457.000000	0.245871   
457.500000	0.136469   
458.000000	-0.070848  
458.500000	-0.102386  
459.000000	0.040636   
459.500000	0.236212   
460.000000	0.196401   
460.500000	-0.008712  
461.000000	-0.183757  
461.500000	-0.243833  
462.000000	-0.220037  
462.500000	-0.124325  
463.000000	-0.035249  
463.500000	0.010734   
464.000000	0.091689   
464.500000	0.159204   
465.000000	0.089856   
465.500000	-0.036734  
466.000000	-0.206484  
466.500000	-0.172219  
467.000000	0.008931   
467.500000	0.172325   
468.000000	0.160477   
468.500000	-0.145242  
469.000000	-0.376083  
469.500000	-0.305818  
470.000000	-0.025030  
470.500000	0.100537   
471.000000	0.135734   
471.500000	0.097250   
472.000000	0.001280   
472.500000	-0.014734  
473.000000	0.013121   
473.500000	0.120522   
474.000000	-0.061386  
474.500000	-0.176840  
475.000000	-0.188992  
475.500000	0.017575   
476.000000	-0.005416  
476.500000	0.027856   
477.000000	0.059439   
477.500000	0.224363   
478.000000	0.254106   
478.500000	0.178234   
479.000000	-0.114045  
479.500000	-0.334568  
480.000000	-0.374189  
480.500000	-0.145530  
481.000000	0.130560   
481.500000	0.220734   
482.000000	0.081560   
482.500000	-0.010431  
483.000000	-0.006159  
483.500000	0.047931   
484.000000	-0.084787  
484.500000	-0.154969  
485.000000	-0.199053  
485.500000	-0.173780  
486.000000	-0.251227  
486.500000	-0.139863  
487.000000	0.057848   
487.500000	0.186651   
488.000000	0.075628   
488.500000	-0.194136  
489.000000	-0.374121  
489.500000	-0.307568  
490.000000	0.008681   
490.500000	0.265469   
491.000000	0.252734   
491.500000	0.084681   
492.000000	0.042810   
492.500000	0.185772   
493.000000	0.320234   
493.500000	0.323712   
494.000000	0.209287   
494.500000	0.064734   
495.000000	0.015954   
495.500000	0.052992   
496.000000	0.180234   
496.500000	0.156674   
497.000000	0.142560   
497.500000	0.148022   
498.000000	0.267393   
498.500000	0.327878   
499.000000	0.396522   
499.500000	0.370840   
500.000000	0.409060   
500.500000	0.407780   
501.000000	0.357545   
501.500000	0.192454   
502.000000	0.132666   
502.500000	0.248659   
503.000000	0.529946   
503.500000	0.709621   
504.000000	0.830492   
504.500000	0.869749   
505.000000	0.856499   
505.500000	0.800946   
506.000000	0.756409   
506.500000	0.725590   
507.000000	0.718257   
507.500000	0.757250   
508.000000	0.839439   
508.500000	0.894598   
509.000000	0.876590   
509.500000	0.823136   
510.000000	0.878848   
510.500000	0.919037   
511.000000	0.874015   
511.500000	0.837409   
512.000000	1.037803   
512.500000	1.332068   
513.000000	1.426590   
513.500000	1.313628   
514.000000	1.257606   
514.500000	1.372787   
515.000000	1.488265   
515.500000	1.572250   
516.000000	1.458325   
516.500000	1.319931   
517.000000	1.361878   
517.500000	1.758750   
518.000000	2.025416   
518.500000	2.053689   
519.000000	1.991810   
519.500000	2.201772   
520.000000	2.335507   
520.500000	2.173780   
521.000000	1.956924   
521.500000	2.084871   
522.000000	2.412333   
522.500000	2.708772   
523.000000	2.774340   
523.500000	2.763560   
524.000000	2.669303   
524.500000	2.591136   
525.000000	2.585075   
525.500000	2.763356   
526.000000	3.016500   
526.500000	3.128969   
527.000000	3.201787   
527.500000	3.390234   
528.000000	3.674121   
528.500000	4.109250   
529.000000	4.579386   
529.500000	4.953765   
530.000000	4.967053   
530.500000	4.767628   
531.000000	4.566386   
531.500000	4.653128   
532.000000	4.952174   
532.500000	5.444363   
533.000000	6.029416   
533.500000	6.304636   
534.000000	6.489825   
534.500000	6.580007   
535.000000	6.783174   
535.500000	7.045818   
536.000000	7.576037   
536.500000	8.158886   
537.000000	8.648757   
537.500000	9.157825   
538.000000	9.516121   
538.500000	9.492909   
539.000000	9.187977   
539.500000	9.485212   
540.000000	10.241454  
540.500000	10.889818  
541.000000	11.087863  
541.500000	11.141696  
542.000000	11.204977  
542.500000	11.201272  
543.000000	11.545204  
543.500000	12.113083  
544.000000	12.251674  
544.500000	11.569545  
545.000000	11.032803  
545.500000	11.324098  
546.000000	11.955659  
546.500000	12.307621  
547.000000	12.165454  
547.500000	12.068378  
548.000000	11.768015  
548.500000	11.549159  
549.000000	11.431750  
549.500000	11.830530  
550.000000	12.068666  
550.500000	12.118189  
551.000000	11.909984  
551.500000	11.656977  
552.000000	11.471166  
552.500000	11.468492  
553.000000	11.595348  
553.500000	11.552227  
554.000000	11.424545  
554.500000	11.496704  
555.000000	11.952939  
555.500000	12.424113  
556.000000	12.698606  
556.500000	12.864227  
557.000000	13.334333  
557.500000	13.810310  
558.000000	13.961787  
558.500000	13.609166  
559.000000	13.449750  
559.500000	13.759992  
560.000000	14.467401  
560.500000	15.013780  
561.000000	15.373553  
561.500000	15.636287  
562.000000	15.809393  
562.500000	16.041750  
563.000000	16.561598  
563.500000	17.417719  
564.000000	17.801818  
564.500000	17.901674  
565.000000	17.971750  
565.500000	18.652628  
566.000000	19.614113  
566.500000	20.266462  
567.000000	20.633924  
567.500000	20.925681  
568.000000	21.424477  
568.500000	21.581666  
569.000000	21.562765  
569.500000	21.584750  
570.000000	22.259022  
570.500000	23.007340  
571.000000	23.426204  
571.500000	23.538522  
572.000000	23.893727  
572.500000	24.666159  
573.000000	25.562204  
573.500000	26.498484  
574.000000	27.061553  
574.500000	27.109363  
575.000000	27.083750  
575.500000	27.567583  
576.000000	28.043946  
576.500000	28.790984  
577.000000	29.112553  
577.500000	29.612333  
578.000000	29.731598  
578.500000	29.901643  
579.000000	30.094984  
579.500000	30.766393  
580.000000	31.444257  
580.500000	32.136939  
581.000000	32.917515  
581.500000	33.493878  
582.000000	33.932803  
582.500000	34.493575  
583.000000	35.442704  
583.500000	36.464030  
584.000000	37.496628  
584.500000	37.840303  
585.000000	37.991992  
585.500000	38.359204  
586.000000	39.797840  
586.500000	41.033242  
587.000000	41.555136  
587.500000	40.996174  
588.000000	41.835424  
588.500000	43.057810  
589.000000	44.579568  
589.500000	45.234469  
590.000000	46.764242  
590.500000	48.148499  
591.000000	49.837674  
591.500000	50.481227  
592.000000	51.216628  
592.500000	51.021969  
593.000000	50.836560  
593.500000	51.007234  
594.000000	52.512553  
594.500000	54.417227  
595.000000	56.564416  
595.500000	58.154166  
596.000000	59.181363  
596.500000	59.183924  
597.000000	59.493583  
597.500000	60.576833  
598.000000	62.114363  
598.500000	63.021954  
599.000000	64.162742  
599.500000	66.234545  
600.000000	68.280696  
600.500000	69.657083  
601.000000	69.964863  
601.500000	70.499780  
602.000000	71.374553  
602.500000	72.789060  
603.000000	73.986833  
603.500000	75.224128  
604.000000	76.770878  
604.500000	78.765848  
605.000000	80.911371  
605.500000	82.183295  
606.000000	82.686734  
606.500000	83.454068  
607.000000	85.167969  
607.500000	87.393242  
608.000000	88.977128  
608.500000	90.995666  
609.000000	93.217386  
609.500000	95.227181  
610.000000	96.467666  
610.500000	97.705719  
611.000000	99.095386  
611.500000	100.124696 
612.000000	101.453409 
612.500000	103.153803 
613.000000	105.728787 
613.500000	108.391295 
614.000000	110.678780 
614.500000	111.443856 
615.000000	111.315075 
615.500000	112.061090 
616.000000	114.628484 
616.500000	117.726628 
617.000000	120.381727 
617.500000	122.462568 
618.000000	124.403916 
618.500000	126.197833 
619.000000	127.941477 
619.500000	129.692348 
620.000000	132.383250 
620.500000	135.963106 
621.000000	139.025977 
621.500000	140.743492 
622.000000	142.093484 
622.500000	144.063121 
623.000000	146.443681 
623.500000	147.704696 
624.000000	148.527719 
624.500000	150.809446 
625.000000	154.820181 
625.500000	158.654757 
626.000000	160.367098 
626.500000	160.993500 
627.000000	161.982204 
627.500000	164.277045 
628.000000	166.453848 
628.500000	169.216174 
629.000000	172.222151 
629.500000	175.046219 
630.000000	176.707022 
630.500000	179.222280 
631.000000	183.198227 
631.500000	188.079810 
632.000000	190.299696 
632.500000	190.376424 
633.000000	189.555734 
633.500000	190.333325 
634.000000	192.359893 
634.500000	195.006916 
635.000000	196.866795 
635.500000	198.308446 
636.000000	199.583030 
636.500000	201.020878 
637.000000	202.600431 
637.500000	204.478537 
638.000000	205.731340 
638.500000	208.285901 
639.000000	210.716659 
639.500000	214.259825 
640.000000	215.319310 
640.500000	216.999659 
641.000000	217.550060 
641.500000	219.696939 
642.000000	220.689401 
642.500000	222.106606 
643.000000	222.565810 
643.500000	222.618772 
644.000000	221.401810 
644.500000	220.522696 
645.000000	221.446901 
645.500000	224.016462 
646.000000	226.463363 
646.500000	227.504257 
647.000000	227.089363 
647.500000	226.867469 
648.000000	226.727689 
648.500000	227.093916 
649.000000	226.601113 
649.500000	224.733666 
650.000000	222.660765 
650.500000	222.559984 
651.000000	223.139787 
651.500000	223.083977 
652.000000	222.296969 
652.500000	222.216348 
653.000000	221.607280 
653.500000	220.201977 
654.000000	217.380106 
654.500000	217.307606 
655.000000	217.690795 
655.500000	216.363871 
656.000000	211.431560 
656.500000	207.847424 
657.000000	206.634681 
657.500000	207.018916 
658.000000	205.323143 
658.500000	202.993606 
659.000000	200.650196 
659.500000	198.342946 
660.000000	196.364803 
660.500000	193.267106 
661.000000	190.243856 
661.500000	187.165651 
662.000000	185.289386 
662.500000	182.921515 
663.000000	181.209045 
663.500000	178.501666 
664.000000	175.629431 
664.500000	171.803454 
665.000000	167.622075 
665.500000	163.471265 
666.000000	159.516371 
666.500000	156.597515 
667.000000	154.224946 
667.500000	151.751780 
668.000000	148.930946 
668.500000	146.341325 
669.000000	142.863856 
669.500000	138.657484 
670.000000	134.374583 
670.500000	131.197954 
671.000000	128.212583 
671.500000	125.893833 
672.000000	122.671310 
672.500000	118.875151 
673.000000	115.069068 
673.500000	112.408000 
674.000000	110.654886 
674.500000	108.166265 
675.000000	104.758931 
675.500000	101.037886 
676.000000	97.835621  
676.500000	94.876712  
677.000000	92.238113  
677.500000	89.822143  
678.000000	86.730856  
678.500000	83.973363  
679.000000	80.902568  
679.500000	79.034893  
680.000000	76.680386  
680.500000	74.568833  
681.000000	71.637856  
681.500000	68.918416  
682.000000	66.387939  
682.500000	64.849681  
683.000000	63.655106  
683.500000	62.412553  
684.000000	60.726075  
684.500000	59.178636  
685.000000	57.761848  
685.500000	55.930499  
686.000000	53.545500  
686.500000	51.444439  
687.000000	50.196295  
687.500000	49.653037  
688.000000	48.807515  
688.500000	47.210265  
689.000000	45.047462  
689.500000	42.747568  
690.000000	41.256674  
690.500000	40.235454  
691.000000	39.025515  
691.500000	37.800522  
692.000000	37.136469  
692.500000	36.848916  
693.000000	35.776265  
693.500000	34.431083  
694.000000	32.810613  
694.500000	31.992530  
695.000000	30.963371  
695.500000	30.582909  
696.000000	29.542590  
696.500000	28.338196  
697.000000	26.916401  
697.500000	26.767636  
698.000000	26.887424  
698.500000	26.496856  
699.000000	25.228590  
699.500000	23.901166  
700.000000	23.003484  
700.500000	22.180825  
701.000000	21.296424  
701.500000	20.629719  
702.000000	20.181507  
702.500000	19.788166  
703.000000	19.323598  
703.500000	19.018659  
704.000000	18.899378  
704.500000	18.428143  
705.000000	17.718628  
705.500000	17.197583  
706.000000	17.120393  
706.500000	17.110916  
707.000000	16.868037  
707.500000	16.371750  
708.000000	15.911719  
708.500000	15.591886  
709.000000	15.268893  
709.500000	14.990136  
710.000000	14.245318  
710.500000	13.796643  
711.000000	13.498651  
711.500000	13.569053  
712.000000	13.379500  
712.500000	13.056500  
713.000000	12.431787  
713.500000	12.101037  
714.000000	11.606106  
714.500000	11.393212  
715.000000	11.339689  
715.500000	11.561151  
716.000000	11.517628  
716.500000	11.304863  
717.000000	11.030507  
717.500000	10.974484  
718.000000	10.721196  
718.500000	10.209924  
719.000000	9.503590   
719.500000	8.981568   
720.000000	8.892287   
720.500000	9.113068   
721.000000	9.397386   
721.500000	9.367227   
722.000000	9.053424   
722.500000	8.502060   
723.000000	8.093310   
723.500000	7.712242   
724.000000	7.599280   
724.500000	7.924075   
725.000000	8.587833   
725.500000	8.978666   
726.000000	8.660909   
726.500000	8.059037   
727.000000	7.637022   
727.500000	7.557848   
728.000000	7.499090   
728.500000	7.467053   
729.000000	7.411636   
729.500000	7.245249   
730.000000	7.102454   
730.500000	6.719666   
731.000000	6.382727   
731.500000	6.310143   
732.000000	6.587530   
732.500000	6.677303   
733.000000	6.349106   
733.500000	5.945818   
734.000000	5.808143   
734.500000	6.011984   
735.000000	6.087106   
735.500000	6.103878   
736.000000	6.007469   
736.500000	5.857856   
737.000000	5.647507   
737.500000	5.614606   
738.000000	5.792999   
738.500000	5.972075   
739.000000	5.950568   
739.500000	5.711568   
740.000000	5.465651   
740.500000	5.274916   
741.000000	5.081401   
741.500000	5.051439   
742.000000	5.133143   
742.500000	5.157363   
743.000000	5.016257   
743.500000	4.781000   
744.000000	4.665371   
744.500000	4.751022   
745.000000	4.824681   
745.500000	4.781674   
746.000000	4.555378   
746.500000	4.517916   
747.000000	4.565803   
747.500000	4.762409   
748.000000	4.634515   
748.500000	4.584613   
749.000000	4.536810   
749.500000	4.544015   
750.000000	4.280295   
750.500000	4.046643   
751.000000	3.980409   
751.500000	4.013530   
752.000000	3.948537   
752.500000	3.904954   
753.000000	4.114893   
753.500000	4.342098   
754.000000	4.323636   
754.500000	4.099749   
755.000000	4.043734   
755.500000	4.077469   
756.000000	4.108265   
756.500000	3.937280   
757.000000	3.814598   
757.500000	3.686106   
758.000000	3.577431   
758.500000	3.537454   
759.000000	3.703666   
759.500000	3.961030   
760.000000	4.016939   
760.500000	3.699409   
761.000000	3.317689   
761.500000	3.277939   
762.000000	3.720386   
762.500000	4.022840   
763.000000	3.964795   
763.500000	3.550484   
764.000000	3.438045   
764.500000	3.458196   
765.000000	3.577454   
765.500000	3.468234   
766.000000	3.286128   
766.500000	2.997757   
767.000000	2.896515   
767.500000	2.946939   
768.000000	3.047409   
768.500000	3.045886   
769.000000	3.131742   
769.500000	3.259113   
770.000000	3.330272   
770.500000	3.240015   
771.000000	3.099060   
771.500000	3.020840   
772.000000	3.056181   
772.500000	3.208242   
773.000000	3.297409   
773.500000	3.245818   
774.000000	3.076371   
774.500000	3.007484   
775.000000	3.026984   
775.500000	3.062977   
776.000000	2.980340   
776.500000	2.864143   
777.000000	2.841719   
777.500000	2.967098   
778.000000	3.099734   
778.500000	3.118568   
779.000000	3.038303   
779.500000	2.950409   
780.000000	2.931651   
780.500000	2.863954   
781.000000	2.735159   
781.500000	2.568219   
782.000000	2.591007   
782.500000	2.721113   
783.000000	2.871431   
783.500000	2.954621   
784.000000	3.046340   
784.500000	3.027363   
785.000000	2.881825   
785.500000	2.788704   
786.000000	2.782371   
786.500000	2.764863   
787.000000	2.607507   
787.500000	2.486674   
788.000000	2.477977   
788.500000	2.588522   
789.000000	2.696742   
789.500000	2.799295   
790.000000	2.787151   
790.500000	2.732628   
791.000000	2.643674   
791.500000	2.580840   
792.000000	2.412310   
792.500000	2.377818   
793.000000	2.423969   
793.500000	2.556325   
794.000000	2.576621   
794.500000	2.464787   
795.000000	2.323454   
795.500000	2.272583   
796.000000	2.310946   
796.500000	2.103560   
797.000000	1.848681   
797.500000	1.667689   
798.000000	1.887174   
798.500000	2.158992   
799.000000	2.384651   
799.500000	2.397000   
800.000000	2.212250   
800.500000	1.995500   
801.000000	1.910969   
801.500000	1.963454   
802.000000	1.819121   
802.500000	1.706515   
803.000000	1.776833   
803.500000	2.085196   
804.000000	2.186310   
804.500000	1.971598   
805.000000	1.655598   
805.500000	1.584174   
806.000000	1.897090   
806.500000	2.059818   
807.000000	1.978916   
807.500000	1.708318   
808.000000	1.767234   
808.500000	1.882446   
809.000000	1.989734   
809.500000	1.900863   
810.000000	1.837651   
810.500000	1.684954   
811.000000	1.624174   
811.500000	1.692712   
812.000000	1.746696   
812.500000	1.786757   
813.000000	1.860318   
813.500000	2.001787   
814.000000	1.833318   
814.500000	1.593484   
815.000000	1.463901   
815.500000	1.657590   
816.000000	1.676189   
816.500000	1.718674   
817.000000	1.743931   
817.500000	1.837318   
818.000000	1.653628   
818.500000	1.373113   
819.000000	1.198340   
819.500000	1.278992   
820.000000	1.350212   
820.500000	1.471234   
821.000000	1.527446   
821.500000	1.670833   
822.000000	1.905212   
822.500000	2.326893   
823.000000	2.648196   
823.500000	2.778045   
824.000000	2.678704   
824.500000	2.575727   
825.000000	2.496727   
825.500000	2.342977   
826.000000	2.116469   
826.500000	1.947939   
827.000000	1.765977   
827.500000	1.706651   
828.000000	1.606492   
828.500000	1.684454   
829.000000	1.782166   
829.500000	1.853863   
830.000000	1.641295   
830.500000	1.420833   
831.000000	1.217833   
831.500000	1.063643   
832.000000	0.916386   
832.500000	0.905613   
833.000000	1.060727   
833.500000	1.198234   
834.000000	1.151113   
834.500000	1.059234   
835.000000	1.007901   
835.500000	0.971886   
836.000000	0.943575   
836.500000	0.924143   
837.000000	0.904863   
837.500000	0.854537   
838.000000	0.762174   
838.500000	0.731090   
839.000000	0.694833   
839.500000	0.649893   
840.000000	0.556393   
840.500000	0.544651   
841.000000	0.561674   
841.500000	0.625522   
842.000000	0.754386   
842.500000	0.722848   
843.000000	0.542598   
843.500000	0.292477   
844.000000	0.295113   
844.500000	0.294431   
845.000000	0.280840   
845.500000	0.234143   
846.000000	0.388446   
846.500000	0.543787   
847.000000	0.515272   
847.500000	0.394810   
848.000000	0.335765   
848.500000	0.440704   
849.000000	0.546871   
849.500000	0.560583   
850.000000	0.520257   
850.500000	0.504780   
851.000000	0.520469   
851.500000	0.479780   
852.000000	0.429090   
852.500000	0.326522   
853.000000	0.276916   
853.500000	0.218674   
854.000000	0.174159   
854.500000	0.107204   
855.000000	0.099977   
855.500000	0.172598   
856.000000	0.217659   
856.500000	0.122886   
857.000000	0.019719   
857.500000	0.020053   
858.000000	0.064136   
858.500000	0.160386   
859.000000	0.237030   
859.500000	0.291318   
860.000000	0.213325   
860.500000	0.098386   
861.000000	0.021007   
861.500000	0.130681   
862.000000	0.278878   
862.500000	0.328787   
863.000000	0.233901   
863.500000	0.112416   
864.000000	0.084583   
864.500000	0.071234   
865.000000	0.055825   
865.500000	0.016295   
866.000000	-0.028424  
866.500000	-0.125113  
867.000000	-0.165560  
867.500000	-0.186030  
868.000000	-0.219371  
868.500000	-0.270484  
869.000000	-0.187113  
869.500000	-0.054363  
870.000000	0.016045   
870.500000	-0.040704  
871.000000	-0.038318  
871.500000	0.032409   
872.000000	0.133136   
872.500000	0.085166   
873.000000	0.012606   
873.500000	-0.032439  
874.000000	0.110825   
874.500000	0.189053   
875.000000	0.123507   
875.500000	-0.112750  
876.000000	-0.233689  
876.500000	-0.211196  
877.000000	-0.132196  
877.500000	-0.156689  
878.000000	-0.151621  
878.500000	-0.031250  
879.000000	0.135893   
879.500000	0.160022   
880.000000	0.019242   
880.500000	-0.123439  
881.000000	-0.098878  
881.500000	0.020363   
882.000000	0.078469   
882.500000	0.015734   
883.000000	-0.076378  
883.500000	-0.086265  
884.000000	-0.030909  
884.500000	0.066340   
885.000000	0.133522   
885.500000	0.138568   
886.000000	-0.002537  
886.500000	-0.091068  
887.000000	-0.102787  
887.500000	-0.014303  
888.000000	-0.050840  
888.500000	-0.082174  
889.000000	-0.133863  
889.500000	-0.074287  
890.000000	-0.106378  
890.500000	-0.126946  
891.000000	-0.140280  
891.500000	-0.037318  
892.000000	0.026500   
892.500000	0.059772   
893.000000	0.041916   
893.500000	0.045409   
894.000000	0.028901   
894.500000	0.016030   
895.000000	-0.016000  
895.500000	-0.072068  
896.000000	-0.096242  
896.500000	-0.104704  
897.000000	-0.101583  
897.500000	-0.125454  

