PE FL                   SPECTRUM    ASCII       PEDS        1.60        
  -1
SAA3A1~1.SP
24/04/12
17:16:10.00
24/04/12
17:16:10.00
Jan

897.500000
1









LS55
405.00
5.00
5.00
SCAN
1
20
100
100
0
400
0
1
0
1
5
ON
450 405 
1 0 0
#HDR
-1
-1
#GR
NM

0.00002384185791015625
0.0
450.000000
0.500000
896
8
203.255795
-0.483287
#DATA
450.000000	0.133000   
450.500000	-0.228371  
451.000000	-0.416174  
451.500000	-0.399166  
452.000000	-0.179446  
452.500000	0.064204   
453.000000	0.257606   
453.500000	0.363939   
454.000000	0.357924   
454.500000	0.309833   
455.000000	0.310234   
455.500000	0.217500   
456.000000	0.061159   
456.500000	-0.056053  
457.000000	0.072477   
457.500000	0.230060   
458.000000	0.314015   
458.500000	0.150113   
459.000000	0.008242   
459.500000	-0.088893  
460.000000	-0.110287  
460.500000	-0.142704  
461.000000	-0.218159  
461.500000	-0.219916  
462.000000	-0.199053  
462.500000	-0.005689  
463.000000	0.234840   
463.500000	0.400833   
464.000000	0.217863   
464.500000	-0.074340  
465.000000	-0.227818  
465.500000	-0.087515  
466.000000	0.066128   
466.500000	0.058000   
467.000000	-0.126287  
467.500000	-0.239560  
468.000000	-0.201515  
468.500000	-0.018734  
469.000000	0.084431   
469.500000	0.115143   
470.000000	-0.019522  
470.500000	-0.281545  
471.000000	-0.483287  
471.500000	-0.455772  
472.000000	-0.309666  
472.500000	-0.151310  
473.000000	-0.047371  
473.500000	-0.019477  
474.000000	-0.057984  
474.500000	-0.108628  
475.000000	-0.057636  
475.500000	0.004871   
476.000000	-0.063856  
476.500000	-0.143045  
477.000000	-0.171515  
477.500000	-0.202909  
478.000000	-0.153363  
478.500000	-0.120825  
479.000000	0.040045   
479.500000	0.089598   
480.000000	0.087742   
480.500000	-0.031666  
481.000000	0.037348   
481.500000	0.188931   
482.000000	0.367621   
482.500000	0.324401   
483.000000	0.135371   
483.500000	0.029181   
484.000000	0.016310   
484.500000	0.149189   
485.000000	0.247060   
485.500000	0.279462   
486.000000	0.247083   
486.500000	0.154196   
487.000000	0.043075   
487.500000	-0.018121  
488.000000	0.054727   
488.500000	0.136022   
489.000000	0.216030   
489.500000	0.172946   
490.000000	0.093621   
490.500000	-0.043234  
491.000000	-0.093431  
491.500000	0.020484   
492.000000	0.067810   
492.500000	0.049416   
493.000000	0.066659   
493.500000	0.191083   
494.000000	0.215075   
494.500000	0.082121   
495.000000	-0.080909  
495.500000	0.004810   
496.000000	0.250234   
496.500000	0.457962   
497.000000	0.451719   
497.500000	0.298946   
498.000000	0.198924   
498.500000	0.358825   
499.000000	0.594446   
499.500000	0.716803   
500.000000	0.566553   
500.500000	0.364045   
501.000000	0.367825   
501.500000	0.556780   
502.000000	0.714318   
502.500000	0.759969   
503.000000	0.672053   
503.500000	0.567643   
504.000000	0.370757   
504.500000	0.344090   
505.000000	0.328113   
505.500000	0.406924   
506.000000	0.539462   
506.500000	0.821469   
507.000000	1.026924   
507.500000	1.056106   
508.000000	0.986977   
508.500000	0.892560   
509.000000	0.880181   
509.500000	0.890439   
510.000000	1.028393   
510.500000	1.129310   
511.000000	1.180462   
511.500000	1.192219   
512.000000	1.356787   
512.500000	1.495348   
513.000000	1.634492   
513.500000	1.528053   
514.000000	1.494795   
514.500000	1.628530   
515.000000	2.039818   
515.500000	2.170772   
516.000000	2.122621   
516.500000	2.064954   
517.000000	2.359545   
517.500000	2.525037   
518.000000	2.277181   
518.500000	1.848401   
519.000000	1.843522   
519.500000	2.209000   
520.000000	2.668856   
520.500000	2.859977   
521.000000	2.778227   
521.500000	2.639136   
522.000000	2.635507   
522.500000	2.865204   
523.000000	3.078219   
523.500000	3.113340   
524.000000	3.060030   
524.500000	3.198992   
525.000000	3.321121   
525.500000	3.334424   
526.000000	3.247765   
526.500000	3.600462   
527.000000	4.291818   
527.500000	4.896916   
528.000000	4.918696   
528.500000	4.635159   
529.000000	4.569159   
529.500000	4.907886   
530.000000	5.406689   
530.500000	5.793636   
531.000000	5.951196   
531.500000	5.995643   
532.000000	6.284128   
532.500000	6.668871   
533.000000	7.026856   
533.500000	7.140780   
534.000000	7.311734   
534.500000	7.351939   
535.000000	7.573969   
535.500000	7.947962   
536.000000	8.711446   
536.500000	9.054810   
537.000000	9.158159   
537.500000	9.397553   
538.000000	10.112984  
538.500000	10.810515  
539.000000	11.010734  
539.500000	11.108363  
540.000000	11.514613  
540.500000	12.052727  
541.000000	12.238810  
541.500000	12.018113  
542.000000	11.936924  
542.500000	12.138833  
543.000000	12.484750  
543.500000	12.407136  
544.000000	12.258022  
544.500000	12.278712  
545.000000	12.465227  
545.500000	12.644280  
546.000000	12.519242  
546.500000	12.361227  
547.000000	12.087500  
547.500000	12.069348  
548.000000	11.988613  
548.500000	11.978863  
549.000000	11.650037  
549.500000	11.315621  
550.000000	11.546106  
550.500000	11.914015  
551.000000	12.324136  
551.500000	12.375083  
552.000000	12.611606  
552.500000	12.578204  
553.000000	12.588727  
553.500000	12.432424  
554.000000	12.739606  
554.500000	12.899583  
555.000000	12.824772  
555.500000	12.612681  
556.000000	12.770901  
556.500000	13.257022  
557.000000	14.209242  
557.500000	15.042227  
558.000000	15.630492  
558.500000	15.771643  
559.000000	15.745515  
559.500000	15.695363  
560.000000	15.644666  
560.500000	16.036106  
561.000000	16.795651  
561.500000	17.698825  
562.000000	17.903174  
562.500000	17.994386  
563.000000	18.428750  
563.500000	19.274886  
564.000000	19.978583  
564.500000	20.262356  
565.000000	20.455295  
565.500000	20.577053  
566.000000	21.087712  
566.500000	21.929022  
567.000000	22.798060  
567.500000	23.041727  
568.000000	22.868628  
568.500000	23.279954  
569.000000	24.236121  
569.500000	24.998356  
570.000000	24.944946  
570.500000	24.774401  
571.000000	24.999750  
571.500000	25.588030  
572.000000	25.895992  
572.500000	26.301462  
573.000000	26.944924  
573.500000	27.734250  
574.000000	28.021621  
574.500000	28.038590  
575.000000	28.097446  
575.500000	28.671409  
576.000000	29.419265  
576.500000	30.068893  
577.000000	30.515189  
577.500000	31.022287  
578.000000	31.852174  
578.500000	32.543022  
579.000000	32.902310  
579.500000	33.300227  
580.000000	33.912196  
580.500000	34.476909  
581.000000	34.904484  
581.500000	35.681393  
582.000000	36.765689  
582.500000	37.452356  
583.000000	37.803378  
583.500000	38.573469  
584.000000	39.805522  
584.500000	40.654992  
585.000000	40.694734  
585.500000	40.559348  
586.000000	40.831181  
586.500000	42.151113  
587.000000	43.743492  
587.500000	45.455439  
588.000000	46.454962  
588.500000	47.703136  
589.000000	48.492060  
589.500000	49.453734  
590.000000	49.798659  
590.500000	50.276984  
591.000000	50.215454  
591.500000	50.654772  
592.000000	51.562825  
592.500000	53.246265  
593.000000	54.263803  
593.500000	54.791500  
594.000000	55.214954  
594.500000	56.366303  
595.000000	58.166977  
595.500000	60.156621  
596.000000	61.398787  
596.500000	62.538454  
597.000000	63.641325  
597.500000	64.603522  
598.000000	65.479318  
598.500000	66.094287  
599.000000	67.504401  
599.500000	69.041568  
600.000000	70.832318  
600.500000	71.716196  
601.000000	72.594416  
601.500000	72.741818  
602.000000	73.262954  
602.500000	74.587219  
603.000000	76.943621  
603.500000	79.708303  
604.000000	81.269098  
604.500000	82.487749  
605.000000	83.766469  
605.500000	85.447212  
606.000000	86.727106  
606.500000	88.068840  
607.000000	89.224689  
607.500000	90.039553  
608.000000	90.539704  
608.500000	92.425992  
609.000000	94.882257  
609.500000	97.077295  
610.000000	97.756409  
610.500000	99.351856  
611.000000	101.439113 
611.500000	103.631416 
612.000000	104.181000 
612.500000	105.140825 
613.000000	107.136727 
613.500000	109.964757 
614.000000	112.954803 
614.500000	115.421636 
615.000000	116.776651 
615.500000	116.839954 
616.000000	117.853560 
616.500000	120.288780 
617.000000	123.244651 
617.500000	124.481742 
618.000000	124.989803 
618.500000	126.944022 
619.000000	130.294818 
619.500000	133.234757 
620.000000	134.491893 
620.500000	135.437151 
621.000000	136.746166 
621.500000	139.270287 
622.000000	141.866121 
622.500000	144.544795 
623.000000	146.776878 
623.500000	148.055310 
624.000000	149.083015 
624.500000	150.747484 
625.000000	153.175409 
625.500000	155.436015 
626.000000	157.932507 
626.500000	160.412000 
627.000000	162.431537 
627.500000	163.046659 
628.000000	164.584212 
628.500000	167.981090 
629.000000	171.915825 
629.500000	173.753356 
630.000000	174.054659 
630.500000	175.078189 
631.000000	177.013939 
631.500000	178.553462 
632.000000	179.387060 
632.500000	180.762515 
633.000000	182.897212 
633.500000	185.018787 
634.000000	185.952045 
634.500000	186.232977 
635.000000	186.906424 
635.500000	188.023424 
636.000000	189.162651 
636.500000	191.076393 
637.000000	193.448606 
637.500000	196.144704 
638.000000	197.004560 
638.500000	197.358818 
639.000000	197.834462 
639.500000	199.446219 
640.000000	199.305583 
640.500000	198.548219 
641.000000	198.203977 
641.500000	200.069143 
642.000000	201.557106 
642.500000	201.928765 
643.000000	201.270636 
643.500000	201.360568 
644.000000	202.150825 
644.500000	202.614045 
645.000000	203.067833 
645.500000	203.074977 
646.000000	203.255795 
646.500000	202.667113 
647.000000	202.153500 
647.500000	201.358151 
648.000000	200.298651 
648.500000	198.471651 
649.000000	197.190606 
649.500000	196.724446 
650.000000	196.497795 
650.500000	194.741848 
651.000000	192.812780 
651.500000	191.835348 
652.000000	191.317984 
652.500000	189.956484 
653.000000	188.209431 
653.500000	186.803583 
654.000000	184.832696 
654.500000	181.492128 
655.000000	178.562015 
655.500000	177.722659 
656.000000	177.790371 
656.500000	176.251545 
657.000000	173.096946 
657.500000	168.980325 
658.000000	165.656007 
658.500000	163.704356 
659.000000	162.751015 
659.500000	161.146181 
660.000000	158.006234 
660.500000	155.308931 
661.000000	152.894022 
661.500000	149.947287 
662.000000	145.593742 
662.500000	141.777469 
663.000000	138.482825 
663.500000	135.562863 
664.000000	132.014484 
664.500000	129.243143 
665.000000	126.106030 
665.500000	122.801128 
666.000000	119.231568 
666.500000	116.398545 
667.000000	113.359530 
667.500000	110.397606 
668.000000	107.273265 
668.500000	104.954901 
669.000000	102.698318 
669.500000	100.307053 
670.000000	97.191030  
670.500000	94.801439  
671.000000	92.762977  
671.500000	90.421818  
672.000000	86.534568  
672.500000	83.245742  
673.000000	81.123446  
673.500000	79.762772  
674.000000	77.130484  
674.500000	74.026530  
675.000000	70.803969  
675.500000	68.788295  
676.000000	67.277719  
676.500000	66.800007  
677.000000	65.252416  
677.500000	62.956924  
678.000000	59.816636  
678.500000	57.824068  
679.000000	55.792818  
679.500000	54.295780  
680.000000	52.421409  
680.500000	51.390022  
681.000000	50.577818  
681.500000	49.534265  
682.000000	47.413916  
682.500000	45.164765  
683.000000	43.830333  
683.500000	43.182909  
684.000000	42.437560  
684.500000	40.851189  
685.000000	39.269189  
685.500000	37.515356  
686.000000	35.870393  
686.500000	34.637977  
687.000000	34.272484  
687.500000	33.962068  
688.000000	33.244022  
688.500000	32.014045  
689.000000	30.936363  
689.500000	30.020265  
690.000000	28.775613  
690.500000	27.259742  
691.000000	26.024909  
691.500000	25.551537  
692.000000	25.301750  
692.500000	25.207242  
693.000000	24.441757  
693.500000	23.553053  
694.000000	22.383030  
694.500000	22.302212  
695.000000	22.339871  
695.500000	21.916795  
696.000000	20.617037  
696.500000	19.846598  
697.000000	19.623310  
697.500000	19.401363  
698.000000	18.557250  
698.500000	17.627636  
699.000000	17.104227  
699.500000	17.054924  
700.000000	16.975257  
700.500000	16.852795  
701.000000	16.330727  
701.500000	15.749318  
702.000000	14.906340  
702.500000	14.623704  
703.000000	14.285477  
703.500000	13.882780  
704.000000	12.930992  
704.500000	12.283060  
705.000000	11.934878  
705.500000	11.879083  
706.000000	12.066242  
706.500000	12.324780  
707.000000	12.364742  
707.500000	11.914772  
708.000000	11.435204  
708.500000	11.014053  
709.000000	10.848348  
709.500000	10.805492  
710.000000	10.880977  
710.500000	10.843946  
711.000000	10.743469  
711.500000	10.719371  
712.000000	10.576954  
712.500000	10.199719  
713.000000	9.861931   
713.500000	9.729893   
714.000000	9.610386   
714.500000	9.491287   
715.000000	9.389469   
715.500000	9.231977   
716.000000	8.626371   
716.500000	8.260015   
717.000000	8.259196   
717.500000	8.456098   
718.000000	8.075363   
718.500000	7.696507   
719.000000	7.496530   
719.500000	7.658113   
720.000000	7.491083   
720.500000	7.447053   
721.000000	7.463295   
721.500000	7.609613   
722.000000	7.513249   
722.500000	7.286098   
723.000000	6.981590   
723.500000	6.783696   
724.000000	6.658909   
724.500000	6.522946   
725.000000	6.439439   
725.500000	6.117689   
726.000000	5.784265   
726.500000	5.455083   
727.000000	5.383916   
727.500000	5.362037   
728.000000	5.552628   
728.500000	5.800734   
729.000000	6.026462   
729.500000	5.891249   
730.000000	5.785257   
730.500000	5.927696   
731.000000	6.103515   
731.500000	5.968575   
732.000000	5.668909   
732.500000	5.404204   
733.000000	5.228962   
733.500000	5.113727   
734.000000	5.105886   
734.500000	5.212507   
735.000000	5.284007   
735.500000	5.286136   
736.000000	5.215174   
736.500000	4.980030   
737.000000	4.717371   
737.500000	4.580295   
738.000000	4.719431   
738.500000	4.841439   
739.000000	5.018219   
739.500000	5.064234   
740.000000	5.391318   
740.500000	5.223181   
741.000000	4.784310   
741.500000	4.132643   
742.000000	4.213325   
742.500000	4.256060   
743.000000	4.347575   
743.500000	4.274280   
744.000000	4.538083   
744.500000	4.524840   
745.000000	4.303371   
745.500000	3.939636   
746.000000	3.682909   
746.500000	3.539098   
747.000000	3.745189   
747.500000	4.236219   
748.000000	4.364075   
748.500000	4.142704   
749.000000	3.844007   
749.500000	3.873075   
750.000000	3.778446   
750.500000	3.680439   
751.000000	3.709734   
751.500000	4.059515   
752.000000	4.187545   
752.500000	3.912840   
753.000000	3.542606   
753.500000	3.428068   
754.000000	3.599409   
754.500000	3.650840   
755.000000	3.649393   
755.500000	3.621787   
756.000000	3.848280   
756.500000	4.039257   
757.000000	4.169015   
757.500000	3.914840   
758.000000	3.617424   
758.500000	3.497727   
759.000000	3.612227   
759.500000	3.664522   
760.000000	3.493196   
760.500000	3.286909   
761.000000	3.131772   
761.500000	3.081083   
762.000000	3.052106   
762.500000	3.119181   
763.000000	3.122628   
763.500000	3.073401   
764.000000	3.090303   
764.500000	3.204833   
765.000000	3.303772   
765.500000	3.274750   
766.000000	3.316954   
766.500000	3.516045   
767.000000	3.650469   
767.500000	3.479189   
768.000000	3.129787   
768.500000	2.882795   
769.000000	2.847371   
769.500000	2.908772   
770.000000	2.988750   
770.500000	3.034128   
771.000000	3.006659   
771.500000	2.905469   
772.000000	2.893590   
772.500000	2.899015   
773.000000	2.876416   
773.500000	2.770378   
774.000000	2.805257   
774.500000	2.918803   
775.000000	2.994954   
775.500000	2.912318   
776.000000	2.906674   
776.500000	3.086825   
777.000000	3.325363   
777.500000	3.424212   
778.000000	3.248575   
778.500000	3.048962   
779.000000	2.900378   
779.500000	2.974712   
780.000000	2.961022   
780.500000	2.964712   
781.000000	2.849181   
781.500000	2.832333   
782.000000	2.825250   
782.500000	2.785939   
783.000000	2.687568   
783.500000	2.600522   
784.000000	2.633318   
784.500000	2.649121   
785.000000	2.705674   
785.500000	2.774257   
786.000000	2.924439   
786.500000	2.809583   
787.000000	2.542924   
787.500000	2.325500   
788.000000	2.353984   
788.500000	2.471689   
789.000000	2.641863   
789.500000	2.752878   
790.000000	2.628151   
790.500000	2.322265   
791.000000	2.173901   
791.500000	2.350871   
792.000000	2.593272   
792.500000	2.542719   
793.000000	2.307787   
793.500000	1.995522   
794.000000	1.915757   
794.500000	1.999522   
795.000000	2.212810   
795.500000	2.172537   
796.000000	2.118765   
796.500000	2.021250   
797.000000	2.034310   
797.500000	2.007484   
798.000000	2.110363   
798.500000	2.154810   
799.000000	2.238090   
799.500000	2.319462   
800.000000	2.589803   
800.500000	2.708833   
801.000000	2.410250   
801.500000	1.992469   
802.000000	1.768962   
802.500000	1.862151   
803.000000	1.956098   
803.500000	1.964295   
804.000000	1.801719   
804.500000	1.671053   
805.000000	1.641431   
805.500000	1.751878   
806.000000	1.809613   
806.500000	1.673212   
807.000000	1.514606   
807.500000	1.543939   
808.000000	1.662878   
808.500000	1.849212   
809.000000	1.882098   
809.500000	1.874719   
810.000000	1.745636   
810.500000	1.886143   
811.000000	1.953015   
811.500000	1.868242   
812.000000	1.489583   
812.500000	1.238409   
813.000000	1.214371   
813.500000	1.416333   
814.000000	1.547462   
814.500000	1.613340   
815.000000	1.609000   
815.500000	1.589053   
816.000000	1.560477   
816.500000	1.534121   
817.000000	1.456909   
817.500000	1.470295   
818.000000	1.387333   
818.500000	1.337772   
819.000000	1.430515   
819.500000	1.646977   
820.000000	1.795689   
820.500000	1.878484   
821.000000	1.800113   
821.500000	1.736287   
822.000000	1.627530   
822.500000	1.711984   
823.000000	1.834265   
823.500000	1.993946   
824.000000	1.936181   
824.500000	1.950621   
825.000000	2.124939   
825.500000	2.470750   
826.000000	2.679325   
826.500000	2.634704   
827.000000	2.353090   
827.500000	1.964015   
828.000000	1.485969   
828.500000	1.262454   
829.000000	1.291734   
829.500000	1.510962   
830.000000	1.494356   
830.500000	1.406984   
831.000000	1.268492   
831.500000	1.207409   
832.000000	1.212492   
832.500000	1.233613   
833.000000	1.175742   
833.500000	1.001439   
834.000000	0.921856   
834.500000	1.012045   
835.000000	1.101075   
835.500000	1.010659   
836.000000	0.838568   
836.500000	0.854840   
837.000000	0.904757   
837.500000	0.951053   
838.000000	0.877348   
838.500000	0.930356   
839.000000	1.010393   
839.500000	1.001090   
840.000000	0.801477   
840.500000	0.683765   
841.000000	0.642340   
841.500000	0.706674   
842.000000	0.720893   
842.500000	0.833439   
843.000000	0.898015   
843.500000	0.872469   
844.000000	0.654530   
844.500000	0.574272   
845.000000	0.491750   
845.500000	0.351401   
846.000000	0.158840   
846.500000	0.096522   
847.000000	0.270295   
847.500000	0.425181   
848.000000	0.504969   
848.500000	0.511234   
849.000000	0.560954   
849.500000	0.493977   
850.000000	0.411954   
850.500000	0.266931   
851.000000	0.206189   
851.500000	0.158613   
852.000000	0.144666   
852.500000	0.099969   
853.000000	0.013136   
853.500000	-0.095689  
854.000000	-0.017924  
854.500000	0.028871   
855.000000	0.059136   
855.500000	0.036416   
856.000000	0.150757   
856.500000	0.138780   
857.000000	0.052606   
857.500000	-0.112840  
858.000000	-0.054348  
858.500000	-0.031590  
859.000000	-0.024416  
859.500000	0.000212   
860.000000	-0.025469  
860.500000	0.013227   
861.000000	0.008893   
861.500000	0.107492   
862.000000	0.163734   
862.500000	0.143250   
863.000000	-0.064795  
863.500000	-0.146833  
864.000000	-0.104000  
864.500000	0.020901   
865.000000	0.047234   
865.500000	-0.009151  
866.000000	-0.015204  
866.500000	0.026219   
867.000000	-0.029401  
867.500000	-0.084863  
868.000000	-0.024371  
868.500000	0.160484   
869.000000	0.227666   
869.500000	0.083712   
870.000000	-0.097545  
870.500000	-0.103962  
871.000000	0.018030   
871.500000	0.072909   
872.000000	0.046530   
872.500000	-0.039037  
873.000000	-0.112401  
873.500000	-0.163878  
874.000000	-0.156537  
874.500000	-0.127833  
875.000000	0.026560   
875.500000	0.214674   
876.000000	0.282606   
876.500000	0.104681   
877.000000	-0.088507  
877.500000	-0.126522  
878.000000	-0.019007  
878.500000	0.030636   
879.000000	0.003999   
879.500000	-0.063909  
880.000000	-0.027053  
880.500000	0.106469   
881.000000	0.283825   
881.500000	0.311386   
882.000000	0.175121   
882.500000	0.060530   
883.000000	0.081007   
883.500000	0.149348   
884.000000	0.085166   
884.500000	-0.012098  
885.000000	-0.126257  
885.500000	-0.195272  
886.000000	-0.343863  
886.500000	-0.413560  
887.000000	-0.311696  
887.500000	-0.037113  
888.000000	0.146037   
888.500000	0.069143   
889.000000	-0.125431  
889.500000	-0.197204  
890.000000	-0.058992  
890.500000	0.093780   
891.000000	0.180386   
891.500000	0.114189   
892.000000	-0.035545  
892.500000	-0.133712  
893.000000	-0.098325  
893.500000	0.028507   
894.000000	0.002000   
894.500000	-0.050318  
895.000000	-0.078848  
895.500000	0.018787   
896.000000	0.019833   
896.500000	0.022992   
897.000000	-0.009621  
897.500000	0.012409   

