PE FL                   SPECTRUM    ASCII       PEDS        1.60        
  -1
SAA389~1.SP
24/04/12
16:41:57.00
24/04/12
16:41:57.00
Jan

897.500000
1









LS55
405.00
5.00
5.00
SCAN
1
20
100
100
0
400
0
1
0
1
5
ON
450 405 
1 0 0
#HDR
-1
-1
#GR
NM

0.00002384185791015625
0.0
450.000000
0.500000
896
8
258.290318
-0.567999
#DATA
450.000000	-0.567999  
450.500000	-0.306681  
451.000000	-0.029909  
451.500000	0.178318   
452.000000	0.203174   
452.500000	0.152348   
453.000000	0.032727   
453.500000	-0.021696  
454.000000	-0.059280  
454.500000	-0.075871  
455.000000	0.018734   
455.500000	0.182280   
456.000000	0.317681   
456.500000	0.255189   
457.000000	0.132143   
457.500000	0.086628   
458.000000	0.097075   
458.500000	0.044780   
459.000000	-0.040409  
459.500000	-0.059060  
460.000000	-0.128696  
460.500000	-0.228651  
461.000000	-0.284174  
461.500000	-0.211181  
462.000000	-0.088128  
462.500000	0.003833   
463.000000	0.057787   
463.500000	0.106636   
464.000000	0.085393   
464.500000	-0.019371  
465.000000	-0.046727  
465.500000	0.112000   
466.000000	0.276795   
466.500000	0.251462   
467.000000	0.002924   
467.500000	-0.053643  
468.000000	0.149340   
468.500000	0.377068   
469.000000	0.343181   
469.500000	0.111659   
470.000000	0.017696   
470.500000	-0.005810  
471.000000	0.032969   
471.500000	-0.045045  
472.000000	0.070734   
472.500000	-0.001856  
473.000000	-0.017090  
473.500000	-0.174780  
474.000000	-0.078659  
474.500000	-0.048901  
475.000000	0.020765   
475.500000	0.000257   
476.000000	0.138583   
476.500000	0.173325   
477.000000	0.125969   
477.500000	0.012916   
478.000000	0.013219   
478.500000	0.034969   
479.000000	-0.030530  
479.500000	-0.159265  
480.000000	-0.307507  
480.500000	-0.301128  
481.000000	-0.298037  
481.500000	-0.130727  
482.000000	-0.106492  
482.500000	0.023348   
483.000000	0.054128   
483.500000	0.272469   
484.000000	0.278659   
484.500000	0.217901   
485.000000	-0.021643  
485.500000	-0.061181  
486.000000	-0.088446  
486.500000	-0.039931  
487.000000	-0.074704  
487.500000	0.022515   
488.000000	0.095386   
488.500000	0.209537   
489.000000	0.205757   
489.500000	0.208469   
490.000000	0.129704   
490.500000	0.156068   
491.000000	0.141522   
491.500000	0.179803   
492.000000	0.134318   
492.500000	0.146848   
493.000000	0.105136   
493.500000	0.131287   
494.000000	0.119469   
494.500000	0.192439   
495.000000	0.228053   
495.500000	0.320363   
496.000000	0.387863   
496.500000	0.504878   
497.000000	0.464234   
497.500000	0.363931   
498.000000	0.189121   
498.500000	0.240257   
499.000000	0.392310   
499.500000	0.489287   
500.000000	0.470977   
500.500000	0.480878   
501.000000	0.539537   
501.500000	0.566863   
502.000000	0.577303   
502.500000	0.471984   
503.000000	0.374765   
503.500000	0.351196   
504.000000	0.446037   
504.500000	0.556909   
505.000000	0.601030   
505.500000	0.676530   
506.000000	0.782575   
506.500000	0.805007   
507.000000	0.711780   
507.500000	0.669007   
508.000000	0.749999   
508.500000	0.896636   
509.000000	1.017537   
509.500000	1.065022   
510.000000	1.106515   
510.500000	1.109742   
511.000000	1.083000   
511.500000	1.008886   
512.000000	1.040583   
512.500000	1.156348   
513.000000	1.204159   
513.500000	1.216545   
514.000000	1.393045   
514.500000	1.617666   
515.000000	1.762840   
515.500000	1.710113   
516.000000	1.742810   
516.500000	1.827151   
517.000000	1.947931   
517.500000	1.971015   
518.000000	1.910113   
518.500000	1.801007   
519.000000	1.940931   
519.500000	2.343484   
520.000000	2.614833   
520.500000	2.677818   
521.000000	2.549946   
521.500000	2.521931   
522.000000	2.452151   
522.500000	2.387477   
523.000000	2.423121   
523.500000	2.544234   
524.000000	2.717378   
524.500000	2.885575   
525.000000	3.131992   
525.500000	3.338454   
526.000000	3.576053   
526.500000	3.559795   
527.000000	3.508560   
527.500000	3.426477   
528.000000	3.624674   
528.500000	4.022484   
529.000000	4.382371   
529.500000	4.446348   
530.000000	4.508325   
530.500000	4.800999   
531.000000	5.419121   
531.500000	5.890939   
532.000000	6.006742   
532.500000	6.091871   
533.000000	6.287621   
533.500000	6.440356   
534.000000	6.352674   
534.500000	6.472371   
535.000000	6.792901   
535.500000	7.217666   
536.000000	7.463075   
536.500000	7.750000   
537.000000	8.232568   
537.500000	8.661068   
538.000000	9.091530   
538.500000	9.433969   
539.000000	9.649666   
539.500000	9.683530   
540.000000	10.125712  
540.500000	10.696848  
541.000000	11.124181  
541.500000	11.142424  
542.000000	11.038871  
542.500000	11.017159  
543.000000	11.244628  
543.500000	11.630984  
544.000000	12.151507  
544.500000	12.659318  
545.000000	12.674143  
545.500000	12.239787  
546.000000	11.578189  
546.500000	11.489568  
547.000000	11.804189  
547.500000	12.063393  
548.000000	12.024545  
548.500000	11.920090  
549.000000	11.843939  
549.500000	11.611621  
550.000000	11.372340  
550.500000	11.167780  
551.000000	11.301825  
551.500000	11.726128  
552.000000	12.159318  
552.500000	12.003954  
553.000000	11.452265  
553.500000	11.103787  
554.000000	11.330712  
554.500000	11.869189  
555.000000	12.477643  
555.500000	12.928833  
556.000000	13.194272  
556.500000	13.169825  
557.000000	13.172325  
557.500000	13.217295  
558.000000	13.506613  
558.500000	13.711136  
559.000000	13.983856  
559.500000	14.305098  
560.000000	14.783878  
560.500000	15.416787  
561.000000	15.847893  
561.500000	16.188659  
562.000000	16.376515  
562.500000	17.042151  
563.000000	17.787060  
563.500000	18.527537  
564.000000	18.705356  
564.500000	18.963310  
565.000000	19.617590  
565.500000	20.562106  
566.000000	20.999454  
566.500000	20.924310  
567.000000	20.896522  
567.500000	21.649333  
568.000000	22.590893  
568.500000	22.866515  
569.000000	22.784106  
569.500000	23.220878  
570.000000	24.149643  
570.500000	24.982568  
571.000000	25.350772  
571.500000	25.629083  
572.000000	25.815121  
572.500000	25.679909  
573.000000	25.685712  
573.500000	26.334909  
574.000000	27.155818  
574.500000	27.722659  
575.000000	28.027909  
575.500000	28.247689  
576.000000	28.912969  
576.500000	29.687916  
577.000000	30.295363  
577.500000	30.359022  
578.000000	30.594090  
578.500000	31.200772  
579.000000	32.329250  
579.500000	33.087681  
580.000000	33.621136  
580.500000	33.958189  
581.000000	34.404446  
581.500000	34.747757  
582.000000	35.226212  
582.500000	35.787696  
583.000000	36.113371  
583.500000	36.304696  
584.000000	36.804128  
584.500000	38.000393  
585.000000	39.397090  
585.500000	40.639946  
586.000000	41.484522  
586.500000	42.846378  
587.000000	44.354212  
587.500000	45.529568  
588.000000	45.466992  
588.500000	45.576000  
589.000000	46.738348  
589.500000	48.962469  
590.000000	50.724757  
590.500000	51.747621  
591.000000	52.139356  
591.500000	52.299492  
592.000000	52.653810  
592.500000	53.757181  
593.000000	55.044840  
593.500000	56.149575  
594.000000	56.945765  
594.500000	58.006393  
595.000000	59.326340  
595.500000	60.744393  
596.000000	61.885659  
596.500000	62.735742  
597.000000	63.965727  
597.500000	65.155901  
598.000000	66.638628  
598.500000	67.731015  
599.000000	69.316522  
599.500000	70.536909  
600.000000	71.439507  
600.500000	71.731575  
601.000000	72.695757  
601.500000	73.999515  
602.000000	75.376856  
602.500000	77.248083  
603.000000	79.143560  
603.500000	81.261348  
604.000000	82.319068  
604.500000	82.868992  
605.000000	84.141159  
605.500000	87.157984  
606.000000	90.433462  
606.500000	92.682606  
607.000000	93.463166  
607.500000	93.921196  
608.000000	94.591871  
608.500000	95.676227  
609.000000	96.675469  
609.500000	98.516015  
610.000000	100.378363 
610.500000	102.706719 
611.000000	104.777030 
611.500000	107.284962 
612.000000	110.005742 
612.500000	112.214136 
613.000000	113.937166 
613.500000	115.569719 
614.000000	117.962431 
614.500000	119.877265 
615.000000	121.637757 
615.500000	123.415484 
616.000000	126.482765 
616.500000	128.986553 
617.000000	131.042143 
617.500000	132.354477 
618.000000	134.739863 
618.500000	137.751931 
619.000000	140.915143 
619.500000	142.869219 
620.000000	144.428000 
620.500000	146.232340 
621.000000	148.566621 
621.500000	150.915734 
622.000000	153.812166 
622.500000	157.595916 
623.000000	161.328000 
623.500000	163.319363 
624.000000	164.646757 
624.500000	166.755969 
625.000000	169.189780 
625.500000	171.407643 
626.000000	173.841636 
626.500000	177.286651 
627.000000	179.767007 
627.500000	181.619196 
628.000000	184.304757 
628.500000	188.898553 
629.000000	193.257992 
629.500000	196.370863 
630.000000	198.044257 
630.500000	198.405053 
631.000000	198.674909 
631.500000	201.549378 
632.000000	206.686477 
632.500000	210.786196 
633.000000	212.703340 
633.500000	214.465143 
634.000000	216.648530 
634.500000	219.074568 
635.000000	221.280098 
635.500000	223.935621 
636.000000	226.876977 
636.500000	230.470454 
637.000000	233.048325 
637.500000	233.588462 
638.000000	232.537765 
638.500000	233.174613 
639.000000	236.866454 
639.500000	240.555871 
640.000000	242.882106 
640.500000	244.286674 
641.000000	245.675507 
641.500000	246.033219 
642.000000	245.988265 
642.500000	246.520803 
643.000000	247.960590 
643.500000	249.762068 
644.000000	250.120090 
644.500000	250.377977 
645.000000	251.479848 
645.500000	254.152378 
646.000000	256.502318 
646.500000	257.919886 
647.000000	258.290318 
647.500000	257.670287 
648.000000	256.381818 
648.500000	254.379106 
649.000000	254.126234 
649.500000	255.486954 
650.000000	257.307840 
650.500000	257.346712 
651.000000	256.796878 
651.500000	256.220212 
652.000000	255.442287 
652.500000	254.644969 
653.000000	253.561424 
653.500000	253.501265 
654.000000	252.417712 
654.500000	250.048060 
655.000000	248.319568 
655.500000	248.084454 
656.000000	247.850030 
656.500000	245.823212 
657.000000	243.652712 
657.500000	241.641386 
658.000000	240.910522 
658.500000	239.053007 
659.000000	237.054795 
659.500000	234.706303 
660.000000	232.709530 
660.500000	230.669318 
661.000000	228.446121 
661.500000	224.877287 
662.000000	219.398946 
662.500000	214.152143 
663.000000	210.717651 
663.500000	209.132954 
664.000000	205.999583 
664.500000	203.883840 
665.000000	202.063818 
665.500000	200.539318 
666.000000	195.179060 
666.500000	189.381803 
667.000000	184.676795 
667.500000	182.026568 
668.000000	178.355212 
668.500000	174.738772 
669.000000	170.914265 
669.500000	166.781750 
670.000000	162.321931 
670.500000	159.344356 
671.000000	156.790325 
671.500000	153.791371 
672.000000	148.765621 
672.500000	143.836522 
673.000000	139.456022 
673.500000	135.519363 
674.000000	131.173007 
674.500000	126.877325 
675.000000	123.621318 
675.500000	120.941666 
676.000000	118.781174 
676.500000	115.504909 
677.000000	112.036704 
677.500000	108.314098 
678.000000	105.678666 
678.500000	103.179704 
679.000000	101.370840 
679.500000	99.308939  
680.000000	96.381401  
680.500000	92.347909  
681.000000	88.617727  
681.500000	86.109893  
682.000000	83.633825  
682.500000	80.915613  
683.000000	78.141666  
683.500000	76.621075  
684.000000	74.984750  
684.500000	72.989204  
685.000000	70.702500  
685.500000	68.567689  
686.000000	66.662803  
686.500000	64.692030  
687.000000	62.787924  
687.500000	60.410590  
688.000000	57.949499  
688.500000	56.039136  
689.000000	54.954651  
689.500000	54.344075  
690.000000	52.700863  
690.500000	51.170757  
691.000000	49.371939  
691.500000	48.244500  
692.000000	46.465492  
692.500000	44.913893  
693.000000	42.868962  
693.500000	40.698113  
694.000000	38.391265  
694.500000	37.307787  
695.000000	37.285909  
695.500000	37.007015  
696.000000	35.942136  
696.500000	34.368303  
697.000000	33.048893  
697.500000	31.862030  
698.000000	31.003613  
698.500000	30.085666  
699.000000	29.620386  
699.500000	29.309969  
700.000000	29.091416  
700.500000	28.467719  
701.000000	27.648613  
701.500000	26.819113  
702.000000	26.060424  
702.500000	25.123810  
703.000000	24.257909  
703.500000	23.414356  
704.000000	22.492136  
704.500000	21.594712  
705.000000	21.152606  
705.500000	20.799833  
706.000000	20.452840  
706.500000	20.200659  
707.000000	20.126984  
707.500000	19.686083  
708.000000	19.049280  
708.500000	18.345507  
709.000000	17.813106  
709.500000	17.080560  
710.000000	16.608181  
710.500000	16.137303  
711.000000	15.845681  
711.500000	15.346621  
712.000000	14.921742  
712.500000	14.429780  
713.000000	14.236916  
713.500000	14.042181  
714.000000	14.118333  
714.500000	14.184371  
715.000000	14.355863  
715.500000	14.273060  
716.000000	13.833318  
716.500000	13.257916  
717.000000	12.836689  
717.500000	12.523712  
718.000000	12.111772  
718.500000	11.777893  
719.000000	11.528643  
719.500000	11.365348  
720.000000	11.180363  
720.500000	10.875424  
721.000000	10.641992  
721.500000	10.580780  
722.000000	10.517371  
722.500000	10.280924  
723.000000	9.807750   
723.500000	9.531727   
724.000000	9.458257   
724.500000	9.414613   
725.000000	9.055643   
725.500000	8.751689   
726.000000	8.713393   
726.500000	8.838113   
727.000000	8.796749   
727.500000	8.538356   
728.000000	8.355257   
728.500000	8.120204   
729.000000	7.827196   
729.500000	7.503916   
730.000000	7.460348   
730.500000	7.335795   
731.000000	7.397515   
731.500000	7.329318   
732.000000	7.153750   
732.500000	6.974962   
733.000000	7.012787   
733.500000	7.188446   
734.000000	7.001992   
734.500000	6.770583   
735.000000	6.645431   
735.500000	6.833606   
736.000000	6.783636   
736.500000	6.632863   
737.000000	6.374765   
737.500000	6.074568   
738.000000	5.853037   
738.500000	5.767356   
739.000000	5.841416   
739.500000	6.073280   
740.000000	6.285878   
740.500000	6.208318   
741.000000	5.781712   
741.500000	5.503401   
742.000000	5.538909   
742.500000	5.797265   
743.000000	5.865325   
743.500000	5.733878   
744.000000	5.413507   
744.500000	5.013174   
745.000000	4.789863   
745.500000	4.752893   
746.000000	4.842803   
746.500000	4.981613   
747.000000	5.165257   
747.500000	5.038878   
748.000000	4.618590   
748.500000	4.347469   
749.000000	4.378674   
749.500000	4.574901   
750.000000	4.454151   
750.500000	4.626946   
751.000000	4.871136   
751.500000	5.043371   
752.000000	4.607015   
752.500000	4.225037   
753.000000	4.128151   
753.500000	4.493053   
754.000000	4.778492   
754.500000	4.771803   
755.000000	4.592689   
755.500000	4.492446   
756.000000	4.493765   
756.500000	4.284378   
757.000000	3.839257   
757.500000	3.627075   
758.000000	3.710696   
758.500000	3.788818   
759.000000	3.618742   
759.500000	3.485219   
760.000000	3.508333   
760.500000	3.638022   
761.000000	3.779628   
761.500000	3.933568   
762.000000	3.949378   
762.500000	3.693780   
763.000000	3.507795   
763.500000	3.594484   
764.000000	3.705568   
764.500000	3.594295   
765.000000	3.493916   
765.500000	3.573757   
766.000000	3.666848   
766.500000	3.613037   
767.000000	3.489136   
767.500000	3.454734   
768.000000	3.607242   
768.500000	3.812393   
769.000000	3.841757   
769.500000	3.576742   
770.000000	3.268750   
770.500000	3.204204   
771.000000	3.300765   
771.500000	3.262090   
772.000000	3.133901   
772.500000	3.001318   
773.000000	2.909083   
773.500000	2.756340   
774.000000	2.812159   
774.500000	2.795265   
775.000000	2.904265   
775.500000	2.914287   
776.000000	3.137348   
776.500000	3.189901   
777.000000	3.199015   
777.500000	3.033128   
778.000000	2.913598   
778.500000	2.712386   
779.000000	2.639393   
779.500000	2.770825   
780.000000	2.991371   
780.500000	3.130886   
781.000000	3.198409   
781.500000	3.234598   
782.000000	3.229553   
782.500000	3.113045   
783.000000	2.987628   
783.500000	2.827545   
784.000000	2.765242   
784.500000	2.780333   
785.000000	2.895977   
785.500000	2.936098   
786.000000	2.862878   
786.500000	2.737340   
787.000000	2.715969   
787.500000	2.759333   
788.000000	2.769234   
788.500000	2.753780   
789.000000	2.704689   
789.500000	2.667333   
790.000000	2.686757   
790.500000	2.697704   
791.000000	2.763159   
791.500000	2.760689   
792.000000	2.771560   
792.500000	2.786007   
793.000000	2.843893   
793.500000	2.815151   
794.000000	2.723424   
794.500000	2.533272   
795.000000	2.429098   
795.500000	2.381280   
796.000000	2.384689   
796.500000	2.300621   
797.000000	2.359340   
797.500000	2.372537   
798.000000	2.465704   
798.500000	2.270780   
799.000000	2.140825   
799.500000	2.052803   
800.000000	2.159583   
800.500000	2.231507   
801.000000	2.335613   
801.500000	2.304901   
802.000000	2.213325   
802.500000	2.096257   
803.000000	2.118363   
803.500000	2.161189   
804.000000	2.315545   
804.500000	2.492318   
805.000000	2.502757   
805.500000	2.139272   
806.000000	1.725416   
806.500000	1.631053   
807.000000	1.833500   
807.500000	2.000825   
808.000000	1.980803   
808.500000	1.766007   
809.000000	1.615000   
809.500000	1.502742   
810.000000	1.552484   
810.500000	1.577121   
811.000000	1.657022   
811.500000	1.734136   
812.000000	1.676621   
812.500000	1.635696   
813.000000	1.557000   
813.500000	1.550053   
814.000000	1.429492   
814.500000	1.447159   
815.000000	1.564507   
815.500000	1.798060   
816.000000	1.941113   
816.500000	1.948537   
817.000000	1.817393   
817.500000	1.648416   
818.000000	1.476265   
818.500000	1.376530   
819.000000	1.215795   
819.500000	1.220931   
820.000000	1.394681   
820.500000	1.642583   
821.000000	1.716522   
821.500000	1.761454   
822.000000	2.019712   
822.500000	2.333856   
823.000000	2.440931   
823.500000	2.360401   
824.000000	2.457795   
824.500000	2.734636   
825.000000	2.836840   
825.500000	2.626015   
826.000000	2.251598   
826.500000	2.062742   
827.000000	2.014727   
827.500000	2.078537   
828.000000	2.062143   
828.500000	2.076075   
829.000000	1.979204   
829.500000	1.920045   
830.000000	1.847000   
830.500000	1.693075   
831.000000	1.362075   
831.500000	0.987060   
832.000000	0.859560   
832.500000	0.991530   
833.000000	1.281060   
833.500000	1.343053   
834.000000	1.345022   
834.500000	1.254212   
835.000000	1.239181   
835.500000	1.113015   
836.000000	1.023598   
836.500000	1.007287   
837.000000	1.106068   
837.500000	1.111666   
838.000000	0.946553   
838.500000	0.772999   
839.000000	0.734227   
839.500000	0.854401   
840.000000	0.957856   
840.500000	0.906742   
841.000000	0.706151   
841.500000	0.502174   
842.000000	0.477962   
842.500000	0.658386   
843.000000	0.824719   
843.500000	0.734886   
844.000000	0.492628   
844.500000	0.378946   
845.000000	0.377553   
845.500000	0.440893   
846.000000	0.422704   
846.500000	0.497113   
847.000000	0.549984   
847.500000	0.615143   
848.000000	0.596954   
848.500000	0.526522   
849.000000	0.357280   
849.500000	0.206977   
850.000000	0.229340   
850.500000	0.384575   
851.000000	0.580356   
851.500000	0.529689   
852.000000	0.384568   
852.500000	0.185189   
853.000000	0.129469   
853.500000	0.119727   
854.000000	0.055742   
854.500000	0.044340   
855.000000	0.069901   
855.500000	0.187537   
856.000000	0.157174   
856.500000	0.123234   
857.000000	0.037507   
857.500000	-0.002636  
858.000000	-0.112590  
858.500000	-0.005977  
859.000000	0.226325   
859.500000	0.345583   
860.000000	0.290469   
860.500000	0.142742   
861.000000	0.048143   
861.500000	-0.040727  
862.000000	-0.066931  
862.500000	-0.069446  
863.000000	-0.035159  
863.500000	-0.075113  
864.000000	-0.033659  
864.500000	-0.051295  
865.000000	-0.074212  
865.500000	-0.099818  
866.000000	-0.040462  
866.500000	0.036204   
867.000000	0.111363   
867.500000	0.137848   
868.000000	0.126181   
868.500000	0.077590   
869.000000	0.020189   
869.500000	-0.038325  
870.000000	-0.061946  
870.500000	-0.032681  
871.000000	0.032333   
871.500000	0.019651   
872.000000	-0.009333  
872.500000	-0.043901  
873.000000	0.002303   
873.500000	0.078954   
874.000000	0.166818   
874.500000	0.142416   
875.000000	0.011022   
875.500000	-0.143454  
876.000000	-0.191545  
876.500000	-0.110643  
877.000000	-0.075416  
877.500000	-0.170522  
878.000000	-0.322553  
878.500000	-0.295909  
879.000000	-0.157818  
879.500000	-0.028499  
880.000000	-0.020878  
880.500000	-0.038204  
881.000000	-0.037424  
881.500000	0.007621   
882.000000	0.043522   
882.500000	0.034613   
883.000000	0.006181   
883.500000	0.014333   
884.000000	0.012651   
884.500000	0.005363   
885.000000	-0.012507  
885.500000	-0.026712  
886.000000	-0.128772  
886.500000	-0.204757  
887.000000	-0.228515  
887.500000	-0.087553  
888.000000	-0.013022  
888.500000	0.037075   
889.000000	-0.034409  
889.500000	-0.048060  
890.000000	-0.052969  
890.500000	-0.021499  
891.000000	-0.072696  
891.500000	-0.016590  
892.000000	0.094848   
892.500000	0.331856   
893.000000	0.432651   
893.500000	0.443212   
894.000000	0.285053   
894.500000	0.159348   
895.000000	-0.094189  
895.500000	-0.274984  
896.000000	-0.367651  
896.500000	-0.221469  
897.000000	-0.049931  
897.500000	0.014219   

