PE FL                   SPECTRUM    ASCII       PEDS        1.60        
  -1
S05P.SP
24/04/05
12:09:58.00
24/04/05
12:11:21.00
Jan

900.500000
1









LS55
455.00
5.00
5.00
SCAN
1
20
100
100
0
400
0
1
0
1
5
ON
900 455 
1 0 0
#HDR
-1
-1
#GR
NM

0.00002384185791015625
0.0
460.000000
0.500000
882
8
438.625136
-0.141212
#DATA
460.000000	0.303000   
460.500000	0.375924   
461.000000	0.389659   
461.500000	0.380340   
462.000000	0.294765   
462.500000	0.226553   
463.000000	0.210780   
463.500000	0.264727   
464.000000	0.344136   
464.500000	0.332712   
465.000000	0.236666   
465.500000	0.110257   
466.000000	0.173863   
466.500000	0.317999   
467.000000	0.441553   
467.500000	0.330196   
468.000000	0.184568   
468.500000	0.067787   
469.000000	0.061098   
469.500000	0.025999   
470.000000	0.007621   
470.500000	0.037234   
471.000000	0.109742   
471.500000	0.191530   
472.000000	0.204212   
472.500000	0.276537   
473.000000	0.209583   
473.500000	0.172462   
474.000000	0.021356   
474.500000	0.023439   
475.000000	0.091613   
475.500000	0.212795   
476.000000	0.191250   
476.500000	0.184272   
477.000000	0.281174   
477.500000	0.432606   
478.000000	0.523136   
478.500000	0.300113   
479.000000	0.035462   
479.500000	-0.047515  
480.000000	0.174348   
480.500000	0.367727   
481.000000	0.339378   
481.500000	0.193795   
482.000000	0.224401   
482.500000	0.298386   
483.000000	0.316825   
483.500000	0.284810   
484.000000	0.327946   
484.500000	0.296424   
485.000000	0.246204   
485.500000	0.169166   
486.000000	0.234757   
486.500000	0.364916   
487.000000	0.499242   
487.500000	0.527219   
488.000000	0.325166   
488.500000	0.209643   
489.000000	0.230515   
489.500000	0.533560   
490.000000	0.602856   
490.500000	0.540287   
491.000000	0.296681   
491.500000	0.225439   
492.000000	0.269037   
492.500000	0.399469   
493.000000	0.454068   
493.500000	0.366750   
494.000000	0.252371   
494.500000	0.273265   
495.000000	0.444893   
495.500000	0.515522   
496.000000	0.334060   
496.500000	0.244090   
497.000000	0.328893   
497.500000	0.642568   
498.000000	0.654659   
498.500000	0.544954   
499.000000	0.386287   
499.500000	0.492825   
500.000000	0.570113   
500.500000	0.711295   
501.000000	0.687560   
501.500000	0.660560   
502.000000	0.537734   
502.500000	0.562598   
503.000000	0.645189   
503.500000	0.761727   
504.000000	0.680416   
504.500000	0.676295   
505.000000	0.647659   
505.500000	0.615856   
506.000000	0.512780   
506.500000	0.477878   
507.000000	0.528734   
507.500000	0.702469   
508.000000	0.792333   
508.500000	0.834242   
509.000000	0.841401   
509.500000	0.822772   
510.000000	0.744977   
510.500000	0.644303   
511.000000	0.712416   
511.500000	1.003325   
512.000000	1.169651   
512.500000	1.041189   
513.000000	0.790931   
513.500000	0.745606   
514.000000	0.889780   
514.500000	1.077613   
515.000000	1.129712   
515.500000	1.180590   
516.000000	1.172810   
516.500000	1.115469   
517.000000	0.965553   
517.500000	0.837128   
518.000000	0.774196   
518.500000	0.915401   
519.000000	1.204863   
519.500000	1.542651   
520.000000	1.624621   
520.500000	1.417560   
521.000000	1.167492   
521.500000	1.139810   
522.000000	1.359000   
522.500000	1.479560   
523.000000	1.411628   
523.500000	1.305886   
524.000000	1.425681   
524.500000	1.528545   
525.000000	1.577477   
525.500000	1.542484   
526.000000	1.656969   
526.500000	1.627189   
527.000000	1.610575   
527.500000	1.611810   
528.000000	1.698477   
528.500000	1.729234   
529.000000	1.735454   
529.500000	1.711340   
530.000000	1.615598   
530.500000	1.756257   
531.000000	1.915257   
531.500000	2.121727   
532.000000	1.889000   
532.500000	1.759219   
533.000000	1.752871   
533.500000	1.928909   
534.000000	1.978265   
534.500000	2.169454   
535.000000	2.345787   
535.500000	2.493469   
536.000000	2.518522   
536.500000	2.646022   
537.000000	2.787484   
537.500000	2.853568   
538.000000	2.680681   
538.500000	2.518121   
539.000000	2.455477   
539.500000	2.612166   
540.000000	2.926053   
540.500000	3.173333   
541.000000	3.280803   
541.500000	3.270780   
542.000000	3.304575   
542.500000	3.503962   
543.000000	3.952750   
543.500000	4.427446   
544.000000	4.599204   
544.500000	4.883106   
545.000000	5.344825   
545.500000	5.788606   
546.000000	5.582984   
546.500000	5.389143   
547.000000	5.584204   
547.500000	6.150219   
548.000000	6.286946   
548.500000	6.220492   
549.000000	6.216886   
549.500000	6.524742   
550.000000	6.873863   
550.500000	7.113257   
551.000000	7.044401   
551.500000	6.951333   
552.000000	6.976825   
552.500000	7.032007   
553.000000	7.049325   
553.500000	7.312757   
554.000000	8.072159   
554.500000	8.793121   
555.000000	9.054833   
555.500000	8.753318   
556.000000	8.542530   
556.500000	8.695530   
557.000000	9.224537   
557.500000	9.576174   
558.000000	9.572015   
558.500000	9.224659   
559.000000	9.070621   
559.500000	9.292590   
560.000000	9.692280   
560.500000	10.095651  
561.000000	10.290015  
561.500000	10.280416  
562.000000	10.245431  
562.500000	10.371060  
563.000000	10.464401  
563.500000	10.531303  
564.000000	10.629257  
564.500000	11.069492  
565.000000	11.500280  
565.500000	11.544469  
566.000000	11.267378  
566.500000	11.161280  
567.000000	11.292045  
567.500000	11.534431  
568.000000	11.907500  
568.500000	12.424340  
569.000000	13.138621  
569.500000	13.651310  
570.000000	14.156712  
570.500000	14.639303  
571.000000	14.973477  
571.500000	14.914303  
572.000000	14.752136  
572.500000	14.933628  
573.000000	15.516689  
573.500000	16.332537  
574.000000	17.405484  
574.500000	18.519242  
575.000000	19.151469  
575.500000	18.882446  
576.000000	18.537833  
576.500000	18.952583  
577.000000	20.119356  
577.500000	20.708727  
578.000000	20.561174  
578.500000	20.454954  
579.000000	20.981121  
579.500000	21.712022  
580.000000	22.270257  
580.500000	22.776378  
581.000000	23.580939  
581.500000	24.387863  
582.000000	24.910545  
582.500000	25.306856  
583.000000	25.875333  
583.500000	26.413265  
584.000000	26.645462  
584.500000	26.603265  
585.000000	27.253803  
585.500000	28.683643  
586.000000	29.883787  
586.500000	29.825454  
587.000000	29.476106  
587.500000	29.903424  
588.000000	31.102386  
588.500000	32.064939  
589.000000	32.374590  
589.500000	32.926507  
590.000000	33.567500  
590.500000	33.931931  
591.000000	33.967780  
591.500000	34.592499  
592.000000	35.927878  
592.500000	37.663621  
593.000000	38.952083  
593.500000	39.484583  
594.000000	39.772484  
594.500000	40.041681  
595.000000	41.005083  
595.500000	42.036424  
596.000000	43.281098  
596.500000	44.696560  
597.000000	45.933234  
597.500000	46.487954  
598.000000	47.010053  
598.500000	48.057431  
599.000000	49.646227  
599.500000	50.794113  
600.000000	51.514386  
600.500000	52.638810  
601.000000	54.086795  
601.500000	55.049977  
602.000000	55.655409  
602.500000	56.506909  
603.000000	57.665803  
603.500000	58.950553  
604.000000	59.313378  
604.500000	60.461356  
605.000000	61.482515  
605.500000	62.796848  
606.000000	63.385386  
606.500000	64.840310  
607.000000	66.551234  
607.500000	68.440060  
608.000000	69.985227  
608.500000	71.224878  
609.000000	72.683037  
609.500000	73.742393  
610.000000	75.697659  
610.500000	77.325537  
611.000000	78.685431  
611.500000	79.245295  
612.000000	80.527689  
612.500000	82.297575  
613.000000	84.122446  
613.500000	85.653242  
614.000000	86.743219  
614.500000	87.677734  
615.000000	88.281636  
615.500000	89.680257  
616.000000	92.342287  
616.500000	95.605901  
617.000000	98.023371  
617.500000	99.666500  
618.000000	100.696689 
618.500000	102.031250 
619.000000	103.618712 
619.500000	106.010287 
620.000000	108.916189 
620.500000	111.515727 
621.000000	112.827295 
621.500000	114.271492 
622.000000	116.372696 
622.500000	119.662553 
623.000000	122.761924 
623.500000	124.869977 
624.000000	126.065628 
624.500000	127.735500 
625.000000	130.495053 
625.500000	134.069522 
626.000000	137.651151 
626.500000	139.890712 
627.000000	141.276348 
627.500000	142.837393 
628.000000	146.984462 
628.500000	152.036356 
629.000000	156.306363 
629.500000	158.090250 
630.000000	160.088893 
630.500000	163.758318 
631.000000	168.267007 
631.500000	171.777818 
632.000000	174.479613 
632.500000	177.768325 
633.000000	181.294931 
633.500000	185.882280 
634.000000	189.915568 
634.500000	193.820257 
635.000000	196.527348 
635.500000	200.034204 
636.000000	204.574621 
636.500000	209.394068 
637.000000	212.886651 
637.500000	215.396280 
638.000000	218.905295 
638.500000	223.202174 
639.000000	228.302363 
639.500000	232.418196 
640.000000	236.876825 
640.500000	241.864916 
641.000000	247.731643 
641.500000	251.913787 
642.000000	255.764090 
642.500000	259.295962 
643.000000	263.897378 
643.500000	267.141462 
644.000000	270.935053 
644.500000	274.638060 
645.000000	279.045689 
645.500000	282.768810 
646.000000	288.129954 
646.500000	293.469469 
647.000000	297.905295 
647.500000	301.311545 
648.000000	305.068159 
648.500000	310.636295 
649.000000	316.101568 
649.500000	320.774356 
650.000000	323.659931 
650.500000	328.032878 
651.000000	333.803909 
651.500000	340.091378 
652.000000	343.798477 
652.500000	347.257719 
653.000000	352.618818 
653.500000	358.255431 
654.000000	361.294462 
654.500000	362.166954 
655.000000	364.316310 
655.500000	369.192712 
656.000000	374.523106 
656.500000	378.867878 
657.000000	382.460893 
657.500000	387.655522 
658.000000	392.687219 
658.500000	397.691825 
659.000000	400.782204 
659.500000	403.804696 
660.000000	405.376416 
660.500000	407.179924 
661.000000	410.176340 
661.500000	415.197825 
662.000000	419.874113 
662.500000	422.560083 
663.000000	423.959795 
663.500000	425.759409 
664.000000	428.469401 
664.500000	430.570886 
665.000000	431.354318 
665.500000	431.862174 
666.000000	432.306340 
666.500000	432.456590 
667.000000	433.272727 
667.500000	434.992719 
668.000000	437.203871 
668.500000	438.081750 
669.000000	438.625136 
669.500000	438.565196 
670.000000	438.159333 
670.500000	436.841507 
671.000000	435.304984 
671.500000	434.099022 
672.000000	432.115318 
672.500000	429.749878 
673.000000	427.533810 
673.500000	427.640371 
674.000000	428.021075 
674.500000	427.819151 
675.000000	425.560681 
675.500000	422.207590 
676.000000	417.716356 
676.500000	415.534954 
677.000000	414.001189 
677.500000	411.666060 
678.000000	405.067363 
678.500000	398.066856 
679.000000	393.292719 
679.500000	391.189363 
680.000000	388.215765 
680.500000	382.659401 
681.000000	376.011810 
681.500000	369.042719 
682.000000	364.577515 
682.500000	360.402590 
683.000000	355.793969 
683.500000	348.732734 
684.000000	340.134068 
684.500000	332.033840 
685.000000	326.005333 
685.500000	321.812113 
686.000000	316.701803 
686.500000	309.989484 
687.000000	302.348068 
687.500000	296.242727 
688.000000	291.684507 
688.500000	286.228704 
689.000000	279.698030 
689.500000	272.183333 
690.000000	266.677681 
690.500000	261.838151 
691.000000	256.761053 
691.500000	250.174462 
692.000000	243.255053 
692.500000	235.398454 
693.000000	227.725409 
693.500000	220.380757 
694.000000	214.164984 
694.500000	209.288734 
695.000000	204.354446 
695.500000	198.648810 
696.000000	192.646787 
696.500000	186.677416 
697.000000	181.494333 
697.500000	176.787507 
698.000000	172.302560 
698.500000	167.374234 
699.000000	162.068060 
699.500000	156.244674 
700.000000	150.866613 
700.500000	146.753219 
701.000000	142.798863 
701.500000	139.038583 
702.000000	134.150613 
702.500000	130.283469 
703.000000	126.369068 
703.500000	123.570681 
704.000000	120.384363 
704.500000	117.346977 
705.000000	113.421537 
705.500000	108.915833 
706.000000	104.514765 
706.500000	101.862106 
707.000000	101.051962 
707.500000	100.664537 
708.000000	98.729507  
708.500000	95.151159  
709.000000	91.259651  
709.500000	88.331166  
710.000000	86.361712  
710.500000	84.888878  
711.000000	83.278606  
711.500000	80.989530  
712.000000	78.323348  
712.500000	75.870560  
713.000000	74.174469  
713.500000	72.391477  
714.000000	69.999757  
714.500000	67.248166  
715.000000	65.036000  
715.500000	63.532325  
716.000000	61.745022  
716.500000	59.950530  
717.000000	58.473265  
717.500000	57.107280  
718.000000	55.530204  
718.500000	53.860621  
719.000000	52.579295  
719.500000	51.246333  
720.000000	49.947954  
720.500000	48.201424  
721.000000	46.665757  
721.500000	45.290696  
722.000000	44.630045  
722.500000	43.995772  
723.000000	42.962371  
723.500000	41.440037  
724.000000	40.177378  
724.500000	39.480257  
725.000000	38.890181  
725.500000	37.925727  
726.000000	36.645560  
726.500000	35.371818  
727.000000	34.348439  
727.500000	33.674128  
728.000000	33.200651  
728.500000	33.072000  
729.000000	32.585969  
729.500000	31.709121  
730.000000	30.395568  
730.500000	29.065000  
731.000000	27.752189  
731.500000	26.994818  
732.000000	26.799825  
732.500000	26.874621  
733.000000	26.493393  
733.500000	25.564598  
734.000000	24.566984  
734.500000	23.705780  
735.000000	23.208280  
735.500000	22.834151  
736.000000	22.572189  
736.500000	22.127659  
737.000000	21.623295  
737.500000	21.141530  
738.000000	20.893689  
738.500000	20.607530  
739.000000	20.382151  
739.500000	20.145560  
740.000000	19.810492  
740.500000	19.349818  
741.000000	18.831045  
741.500000	18.216439  
742.000000	17.565939  
742.500000	17.117454  
743.000000	16.824962  
743.500000	16.881878  
744.000000	16.909234  
744.500000	16.726901  
745.000000	16.239515  
745.500000	15.749515  
746.000000	15.640787  
746.500000	16.037454  
747.000000	16.218750  
747.500000	15.675545  
748.000000	14.732227  
748.500000	14.057257  
749.000000	13.894643  
749.500000	13.889234  
750.000000	13.864962  
750.500000	13.610000  
751.000000	13.381234  
751.500000	12.908636  
752.000000	12.762393  
752.500000	12.845136  
753.000000	12.825295  
753.500000	12.241818  
754.000000	11.522242  
754.500000	11.145477  
755.000000	11.073075  
755.500000	11.097348  
756.000000	10.822984  
756.500000	10.670659  
757.000000	10.619863  
757.500000	10.745780  
758.000000	11.004446  
758.500000	11.092333  
759.000000	10.664992  
759.500000	10.079083  
760.000000	9.721999   
760.500000	9.612568   
761.000000	9.526765   
761.500000	9.392833   
762.000000	9.341515   
762.500000	9.508681   
763.000000	9.582742   
763.500000	9.552068   
764.000000	9.163856   
764.500000	8.811871   
765.000000	8.772818   
765.500000	8.947022   
766.000000	8.982446   
766.500000	8.640204   
767.000000	8.275431   
767.500000	7.894151   
768.000000	7.860113   
768.500000	7.809636   
769.000000	7.816606   
769.500000	7.572878   
770.000000	7.302901   
770.500000	7.082833   
771.000000	7.173568   
771.500000	7.439628   
772.000000	7.609015   
772.500000	7.435219   
773.000000	7.185833   
773.500000	6.927378   
774.000000	6.754401   
774.500000	6.389628   
775.000000	6.190871   
775.500000	6.164803   
776.000000	6.260780   
776.500000	6.310621   
777.000000	6.210159   
777.500000	6.126893   
778.000000	5.942219   
778.500000	5.716159   
779.000000	5.417833   
779.500000	5.624818   
780.000000	6.047818   
780.500000	6.149431   
781.000000	5.659075   
781.500000	5.022886   
782.000000	4.953765   
782.500000	5.064310   
783.000000	5.243166   
783.500000	5.262651   
784.000000	5.399787   
784.500000	5.265431   
785.000000	5.082886   
785.500000	4.936992   
786.000000	5.025280   
786.500000	5.112643   
787.000000	5.074295   
787.500000	4.888856   
788.000000	4.678924   
788.500000	4.528462   
789.000000	4.507878   
789.500000	4.569333   
790.000000	4.762310   
790.500000	4.827704   
791.000000	4.824477   
791.500000	4.575871   
792.000000	4.418863   
792.500000	4.243083   
793.000000	4.216909   
793.500000	4.084325   
794.000000	4.096106   
794.500000	4.140772   
795.000000	4.240227   
795.500000	4.136007   
796.000000	3.928181   
796.500000	3.914439   
797.000000	4.060772   
797.500000	3.979159   
798.000000	3.721651   
798.500000	3.548174   
799.000000	3.564878   
799.500000	3.573106   
800.000000	3.424409   
800.500000	3.348636   
801.000000	3.325750   
801.500000	3.446219   
802.000000	3.569946   
802.500000	3.705606   
803.000000	3.584446   
803.500000	3.490189   
804.000000	3.340022   
804.500000	3.196227   
805.000000	3.078060   
805.500000	3.182916   
806.000000	3.460196   
806.500000	3.576333   
807.000000	3.401734   
807.500000	3.127393   
808.000000	2.973727   
808.500000	2.920356   
809.000000	2.857492   
809.500000	2.784954   
810.000000	2.869825   
810.500000	3.029128   
811.000000	3.187742   
811.500000	3.193954   
812.000000	3.195045   
812.500000	3.092424   
813.000000	3.009022   
813.500000	3.046613   
814.000000	3.250750   
814.500000	3.312484   
815.000000	3.141060   
815.500000	2.862886   
816.000000	2.615287   
816.500000	2.527409   
817.000000	2.662575   
817.500000	2.870537   
818.000000	3.007750   
818.500000	2.969590   
819.000000	2.921045   
819.500000	2.967060   
820.000000	3.126689   
820.500000	3.275484   
821.000000	3.259212   
821.500000	3.189939   
822.000000	3.252651   
822.500000	3.390325   
823.000000	3.451053   
823.500000	3.546909   
824.000000	3.763621   
824.500000	3.787515   
825.000000	3.466818   
825.500000	3.146742   
826.000000	3.123734   
826.500000	3.191909   
827.000000	3.062598   
827.500000	2.933893   
828.000000	2.913151   
828.500000	2.974121   
829.000000	2.937212   
829.500000	2.814242   
830.000000	2.631575   
830.500000	2.490962   
831.000000	2.488871   
831.500000	2.502098   
832.000000	2.388984   
832.500000	2.196666   
833.000000	2.164462   
833.500000	2.214022   
834.000000	2.293007   
834.500000	2.357272   
835.000000	2.367015   
835.500000	2.190136   
836.000000	1.877856   
836.500000	1.655174   
837.000000	1.681136   
837.500000	1.833166   
838.000000	1.873030   
838.500000	1.704431   
839.000000	1.401053   
839.500000	1.111196   
840.000000	0.948113   
840.500000	0.830439   
841.000000	0.821954   
841.500000	0.902606   
842.000000	1.015590   
842.500000	0.985181   
843.000000	0.894295   
843.500000	0.862037   
844.000000	0.938272   
844.500000	1.002121   
845.000000	0.992189   
845.500000	0.912810   
846.000000	0.811500   
846.500000	0.778151   
847.000000	0.812007   
847.500000	0.897999   
848.000000	0.934719   
848.500000	0.878030   
849.000000	0.666537   
849.500000	0.449757   
850.000000	0.329416   
850.500000	0.436583   
851.000000	0.598666   
851.500000	0.692439   
852.000000	0.675522   
852.500000	0.608287   
853.000000	0.468492   
853.500000	0.355545   
854.000000	0.323621   
854.500000	0.262143   
855.000000	0.201575   
855.500000	0.149636   
856.000000	0.206984   
856.500000	0.240151   
857.000000	0.332295   
857.500000	0.459143   
858.000000	0.524962   
858.500000	0.387560   
859.000000	0.284674   
859.500000	0.386931   
860.000000	0.485909   
860.500000	0.452674   
861.000000	0.392803   
861.500000	0.348431   
862.000000	0.237939   
862.500000	0.044151   
863.000000	-0.004249  
863.500000	0.073787   
864.000000	0.234613   
864.500000	0.161742   
865.000000	0.025522   
865.500000	-0.093575  
866.000000	0.159462   
866.500000	0.376189   
867.000000	0.429189   
867.500000	0.191522   
868.000000	0.121439   
868.500000	0.117143   
869.000000	0.250083   
869.500000	0.275234   
870.000000	0.312462   
870.500000	0.275303   
871.000000	0.235522   
871.500000	0.163590   
872.000000	0.085007   
872.500000	-0.019636  
873.000000	-0.084090  
873.500000	-0.094265  
874.000000	-0.111166  
874.500000	-0.141212  
875.000000	-0.116409  
875.500000	-0.032348  
876.000000	0.062439   
876.500000	0.058439   
877.000000	0.022159   
877.500000	-0.025068  
878.000000	-0.075212  
878.500000	-0.126742  
879.000000	-0.073765  
879.500000	-0.001780  
880.000000	0.015560   
880.500000	0.015189   
881.000000	0.099674   
881.500000	0.146037   
882.000000	0.107734   
882.500000	-0.009106  
883.000000	-0.038522  
883.500000	-0.069424  
884.000000	-0.019272  
884.500000	0.019106   
885.000000	0.162121   
885.500000	0.227719   
886.000000	0.234060   
886.500000	0.138848   
887.000000	0.139734   
887.500000	0.202795   
888.000000	0.286356   
888.500000	0.260219   
889.000000	0.136704   
889.500000	0.019242   
890.000000	-0.075053  
890.500000	-0.078522  
891.000000	-0.021643  
891.500000	0.076568   
892.000000	0.110068   
892.500000	0.172916   
893.000000	0.180765   
893.500000	0.123765   
894.000000	-0.032151  
894.500000	-0.117409  
895.000000	-0.126727  
895.500000	-0.105689  
896.000000	-0.132287  
896.500000	-0.126651  
897.000000	-0.072924  
897.500000	0.014446   
898.000000	0.065946   
898.500000	0.094803   
899.000000	0.065909   
899.500000	0.017507   
900.000000	-0.038015  
900.500000	-0.089999  

