PE FL                   SPECTRUM    ASCII       PEDS        1.60        
  -1
S03P.SP
24/04/05
11:35:18.00
24/04/05
11:36:42.00
Jan

900.500000
1









LS55
455.00
5.00
5.00
SCAN
1
20
100
100
0
400
0
1
0
1
5
ON
900 455 
1 0 0
#HDR
-1
-1
#GR
NM

0.00002384185791015625
0.0
460.000000
0.500000
882
8
163.341318
-0.675000
#DATA
460.000000	-0.374999  
460.500000	-0.070492  
461.000000	0.056106   
461.500000	0.041454   
462.000000	-0.007848  
462.500000	0.072962   
463.000000	0.158772   
463.500000	0.111462   
464.000000	-0.201772  
464.500000	-0.423363  
465.000000	-0.344386  
465.500000	0.018931   
466.000000	0.193462   
466.500000	0.136651   
467.000000	-0.034378  
467.500000	-0.041416  
468.000000	-0.005484  
468.500000	0.004196   
469.000000	-0.009136  
469.500000	-0.030818  
470.000000	-0.048833  
470.500000	-0.060250  
471.000000	-0.022287  
471.500000	-0.017522  
472.000000	0.035780   
472.500000	0.017856   
473.000000	0.061303   
473.500000	0.088484   
474.000000	0.061719   
474.500000	0.001242   
475.000000	-0.067537  
475.500000	-0.080750  
476.000000	-0.184810  
476.500000	-0.273022  
477.000000	-0.258265  
477.500000	-0.042204  
478.000000	0.014689   
478.500000	0.022333   
479.000000	0.034689   
479.500000	0.116674   
480.000000	0.069598   
480.500000	-0.015742  
481.000000	-0.038522  
481.500000	-0.005030  
482.000000	-0.019886  
482.500000	-0.046181  
483.000000	0.009325   
483.500000	0.034219   
484.000000	0.018143   
484.500000	-0.039969  
485.000000	-0.065598  
485.500000	-0.047492  
486.000000	0.051075   
486.500000	0.120242   
487.000000	0.160893   
487.500000	0.155590   
488.000000	0.179166   
488.500000	0.306416   
489.000000	0.437893   
489.500000	0.446000   
490.000000	0.345871   
490.500000	0.404863   
491.000000	0.591931   
491.500000	0.610977   
492.000000	0.318704   
492.500000	0.155621   
493.000000	0.289136   
493.500000	0.476780   
494.000000	0.504083   
494.500000	0.508833   
495.000000	0.649500   
495.500000	0.822121   
496.000000	0.762045   
496.500000	0.630409   
497.000000	0.565151   
497.500000	0.718750   
498.000000	0.863636   
498.500000	0.931189   
499.000000	0.841515   
499.500000	0.793507   
500.000000	0.886303   
500.500000	1.037439   
501.000000	1.273151   
501.500000	1.396901   
502.000000	1.557734   
502.500000	1.715833   
503.000000	1.952803   
503.500000	2.082666   
504.000000	2.260522   
504.500000	2.428219   
505.000000	2.528053   
505.500000	2.456772   
506.000000	2.391598   
506.500000	2.487590   
507.000000	2.690840   
507.500000	2.744030   
508.000000	2.751363   
508.500000	2.783765   
509.000000	2.969265   
509.500000	3.206939   
510.000000	3.367356   
510.500000	3.290636   
511.000000	3.078371   
511.500000	2.929234   
512.000000	2.944939   
512.500000	3.259962   
513.000000	3.554280   
513.500000	3.767840   
514.000000	3.772333   
514.500000	3.825174   
515.000000	3.920803   
515.500000	4.075196   
516.000000	4.095030   
516.500000	3.930977   
517.000000	3.810787   
517.500000	3.942280   
518.000000	4.403712   
518.500000	4.648060   
519.000000	4.593924   
519.500000	4.468265   
520.000000	4.442424   
520.500000	4.439363   
521.000000	4.398810   
521.500000	4.456416   
522.000000	4.386901   
522.500000	4.336651   
523.000000	4.316106   
523.500000	4.552560   
524.000000	4.782727   
524.500000	4.867340   
525.000000	4.845287   
525.500000	5.012234   
526.000000	5.344659   
526.500000	5.543765   
527.000000	5.667257   
527.500000	5.692462   
528.000000	5.816598   
528.500000	5.847840   
529.000000	5.911424   
529.500000	6.067681   
530.000000	6.135651   
530.500000	5.924151   
531.000000	5.767181   
531.500000	5.727992   
532.000000	5.654446   
532.500000	5.325113   
533.000000	5.063984   
533.500000	5.049196   
534.000000	5.341772   
534.500000	5.328560   
535.000000	5.257015   
535.500000	5.176628   
536.000000	5.401219   
536.500000	5.590750   
537.000000	5.785128   
537.500000	5.995386   
538.000000	6.296977   
538.500000	6.364212   
539.000000	6.336151   
539.500000	6.445446   
540.000000	7.015719   
540.500000	7.508431   
541.000000	7.857325   
541.500000	7.849818   
542.000000	7.971590   
542.500000	8.003886   
543.000000	8.164545   
543.500000	8.205909   
544.000000	8.265878   
544.500000	8.537136   
545.000000	8.965886   
545.500000	9.275522   
546.000000	9.134840   
546.500000	9.013295   
547.000000	9.145916   
547.500000	9.543340   
548.000000	9.775174   
548.500000	9.889999   
549.000000	9.983113   
549.500000	10.069356  
550.000000	9.987856   
550.500000	9.920946   
551.000000	10.027575  
551.500000	10.632659  
552.000000	11.242621  
552.500000	11.496371  
553.000000	11.396068  
553.500000	11.419598  
554.000000	11.635257  
554.500000	11.964393  
555.000000	12.258583  
555.500000	12.451689  
556.000000	12.656265  
556.500000	13.160757  
557.000000	13.818128  
557.500000	14.091007  
558.000000	13.749825  
558.500000	13.135166  
559.000000	12.903946  
559.500000	13.156984  
560.000000	13.450469  
560.500000	13.903568  
561.000000	14.410568  
561.500000	14.994772  
562.000000	15.047060  
562.500000	14.790750  
563.000000	14.450666  
563.500000	14.512992  
564.000000	14.418045  
564.500000	14.373962  
565.000000	14.398386  
565.500000	14.483219  
566.000000	14.540393  
566.500000	14.580659  
567.000000	14.615969  
567.500000	14.646318  
568.000000	14.777939  
568.500000	15.307598  
569.000000	15.901553  
569.500000	16.167674  
570.000000	16.029030  
570.500000	15.756643  
571.000000	15.788371  
571.500000	16.206393  
572.000000	16.683840  
572.500000	17.012590  
573.000000	17.221325  
573.500000	17.362515  
574.000000	17.386401  
574.500000	17.521128  
575.000000	17.668159  
575.500000	18.117037  
576.000000	18.451022  
576.500000	19.050159  
577.000000	19.324037  
577.500000	19.502371  
578.000000	19.415333  
578.500000	19.775666  
579.000000	20.509984  
579.500000	21.284810  
580.000000	21.418878  
580.500000	21.008181  
581.000000	20.999378  
581.500000	21.814507  
582.000000	22.773143  
582.500000	23.224090  
583.000000	23.210219  
583.500000	23.516568  
584.000000	23.698507  
584.500000	23.966174  
585.000000	24.067371  
585.500000	24.666000  
586.000000	25.164477  
586.500000	25.611469  
587.000000	26.012772  
587.500000	26.577553  
588.000000	27.426901  
588.500000	27.383492  
589.000000	27.156575  
589.500000	27.137401  
590.000000	28.188583  
590.500000	29.053477  
591.000000	29.476469  
591.500000	29.684689  
592.000000	30.898257  
592.500000	32.093689  
593.000000	32.567992  
593.500000	32.382439  
594.000000	32.655348  
594.500000	33.638560  
595.000000	34.992121  
595.500000	35.562734  
596.000000	35.365924  
596.500000	35.393401  
597.000000	35.961007  
597.500000	37.374659  
598.000000	38.193174  
598.500000	38.691378  
599.000000	38.374287  
599.500000	38.600583  
600.000000	39.166674  
600.500000	40.395575  
601.000000	41.016303  
601.500000	41.679909  
602.000000	42.672196  
602.500000	44.047575  
603.000000	44.683303  
603.500000	44.918522  
604.000000	45.382787  
604.500000	46.386106  
605.000000	47.179757  
605.500000	47.775386  
606.000000	48.186166  
606.500000	48.896469  
607.000000	49.559765  
607.500000	50.079787  
608.000000	50.397856  
608.500000	50.728136  
609.000000	50.573484  
609.500000	50.127030  
610.000000	49.938734  
610.500000	49.895303  
611.000000	49.320636  
611.500000	47.794916  
612.000000	46.175295  
612.500000	44.696227  
613.000000	43.201310  
613.500000	41.644098  
614.000000	40.672378  
614.500000	39.936977  
615.000000	38.994128  
615.500000	37.982340  
616.000000	37.260659  
616.500000	37.024257  
617.000000	36.994166  
617.500000	36.841113  
618.000000	36.389992  
618.500000	35.794143  
619.000000	35.800674  
619.500000	36.376795  
620.000000	36.660719  
620.500000	36.081515  
621.000000	35.629409  
621.500000	36.046871  
622.000000	36.915909  
622.500000	37.252757  
623.000000	37.126075  
623.500000	37.619575  
624.000000	38.450992  
624.500000	39.395916  
625.000000	39.903333  
625.500000	40.283636  
626.000000	40.413780  
626.500000	40.389499  
627.000000	40.284295  
627.500000	40.577507  
628.000000	41.439401  
628.500000	42.278378  
629.000000	42.922280  
629.500000	43.295151  
630.000000	43.981189  
630.500000	44.721696  
631.000000	45.314818  
631.500000	45.700939  
632.000000	46.061537  
632.500000	46.811007  
633.000000	47.987204  
633.500000	48.864204  
634.000000	48.912136  
634.500000	48.049037  
635.000000	48.304106  
635.500000	50.118651  
636.000000	52.944159  
636.500000	54.392075  
637.000000	54.483833  
637.500000	54.141962  
638.000000	55.408371  
638.500000	56.980484  
639.000000	58.529765  
639.500000	59.152962  
640.000000	60.468295  
640.500000	61.508924  
641.000000	63.175659  
641.500000	64.323249  
642.000000	66.367795  
642.500000	67.570992  
643.000000	68.891234  
643.500000	69.501643  
644.000000	70.315878  
644.500000	71.460946  
645.000000	73.163484  
645.500000	74.944166  
646.000000	75.744871  
646.500000	76.448810  
647.000000	77.505825  
647.500000	79.877287  
648.000000	81.634719  
648.500000	83.287856  
649.000000	84.442575  
649.500000	86.159204  
650.000000	87.701545  
650.500000	89.317856  
651.000000	91.204151  
651.500000	93.135287  
652.000000	94.420416  
652.500000	95.498939  
653.000000	97.503674  
653.500000	100.100015 
654.000000	102.066537 
654.500000	103.537803 
655.000000	104.738628 
655.500000	106.352984 
656.000000	107.195234 
656.500000	109.359181 
657.000000	112.169636 
657.500000	115.196795 
658.000000	116.153765 
658.500000	117.272333 
659.000000	118.835075 
659.500000	121.447795 
660.000000	124.287250 
660.500000	127.274477 
661.000000	129.248704 
661.500000	129.436113 
662.000000	128.759931 
662.500000	129.502431 
663.000000	131.480340 
663.500000	134.792022 
664.000000	137.864469 
664.500000	140.791128 
665.000000	142.362969 
665.500000	143.977166 
666.000000	144.820742 
666.500000	145.687492 
667.000000	146.142939 
667.500000	147.476477 
668.000000	149.455287 
668.500000	151.135772 
669.000000	151.839106 
669.500000	151.846840 
670.000000	152.862242 
670.500000	154.495568 
671.000000	156.105189 
671.500000	156.492515 
672.000000	157.670848 
672.500000	158.640416 
673.000000	159.603015 
673.500000	160.413121 
674.000000	162.374492 
674.500000	163.065189 
675.000000	162.007121 
675.500000	160.605136 
676.000000	161.584477 
676.500000	163.046083 
677.000000	163.341318 
677.500000	162.334909 
678.000000	161.954075 
678.500000	161.798068 
679.000000	161.781340 
679.500000	160.794219 
680.000000	159.145674 
680.500000	157.225795 
681.000000	156.365507 
681.500000	156.022015 
682.000000	155.558295 
682.500000	154.019848 
683.000000	153.172606 
683.500000	152.614356 
684.000000	151.671234 
684.500000	148.443886 
685.000000	145.233537 
685.500000	143.409643 
686.000000	143.410515 
686.500000	142.706469 
687.000000	140.681553 
687.500000	138.258227 
688.000000	136.578348 
688.500000	135.704128 
689.000000	134.520106 
689.500000	132.748795 
690.000000	130.550818 
690.500000	127.944818 
691.000000	124.644151 
691.500000	120.855333 
692.000000	118.088234 
692.500000	115.648545 
693.000000	112.954984 
693.500000	109.899159 
694.000000	108.035893 
694.500000	106.665500 
695.000000	105.023757 
695.500000	102.377871 
696.000000	100.320712 
696.500000	97.678090  
697.000000	95.035636  
697.500000	91.705401  
698.000000	89.365378  
698.500000	86.732303  
699.000000	85.212083  
699.500000	83.537196  
700.000000	82.102250  
700.500000	79.955159  
701.000000	77.481249  
701.500000	74.984628  
702.000000	72.809454  
702.500000	71.158689  
703.000000	69.684575  
703.500000	68.191454  
704.000000	66.147598  
704.500000	64.395272  
705.000000	62.218477  
705.500000	60.122628  
706.000000	58.345128  
706.500000	57.813340  
707.000000	57.312696  
707.500000	55.764219  
708.000000	52.956356  
708.500000	50.519515  
709.000000	49.504212  
709.500000	48.908818  
710.000000	48.170833  
710.500000	46.753424  
711.000000	45.644409  
711.500000	44.274060  
712.000000	43.082363  
712.500000	41.915196  
713.000000	41.340590  
713.500000	40.566007  
714.000000	39.810234  
714.500000	38.393924  
715.000000	36.863340  
715.500000	35.412174  
716.000000	34.642204  
716.500000	34.262060  
717.000000	33.850113  
717.500000	32.821287  
718.000000	31.482530  
718.500000	30.038628  
719.000000	29.041022  
719.500000	28.576742  
720.000000	28.313772  
720.500000	27.876219  
721.000000	27.688446  
721.500000	27.772515  
722.000000	27.711159  
722.500000	27.131310  
723.000000	26.233606  
723.500000	25.494007  
724.000000	24.815780  
724.500000	24.142045  
725.000000	23.553280  
725.500000	22.917015  
726.000000	22.560053  
726.500000	22.409393  
727.000000	22.303484  
727.500000	21.489090  
728.000000	20.316636  
728.500000	19.387295  
729.000000	19.338992  
729.500000	19.581310  
730.000000	19.572833  
730.500000	19.174068  
731.000000	18.689515  
731.500000	18.325803  
732.000000	17.998590  
732.500000	17.728522  
733.000000	17.576954  
733.500000	17.413181  
734.000000	17.007484  
734.500000	16.736454  
735.000000	16.661689  
735.500000	16.501825  
736.000000	16.021522  
736.500000	15.689909  
737.000000	15.648234  
737.500000	15.497189  
738.000000	14.833303  
738.500000	13.963939  
739.000000	13.738053  
739.500000	13.748053  
740.000000	13.662090  
740.500000	13.079371  
741.000000	12.641977  
741.500000	12.548310  
742.000000	12.672424  
742.500000	12.578257  
743.000000	12.535000  
743.500000	12.575628  
744.000000	12.386325  
744.500000	11.905060  
745.000000	11.596742  
745.500000	11.717431  
746.000000	11.899537  
746.500000	11.695545  
747.000000	11.548212  
747.500000	11.521659  
748.000000	11.284681  
748.500000	10.822553  
749.000000	10.645803  
749.500000	10.796151  
750.000000	10.716583  
750.500000	10.414590  
751.000000	10.392159  
751.500000	10.772060  
752.000000	10.836484  
752.500000	10.563977  
753.000000	10.095750  
753.500000	9.800999   
754.000000	9.600386   
754.500000	9.607909   
755.000000	9.489166   
755.500000	9.087492   
756.000000	8.560803   
756.500000	8.437363   
757.000000	8.697810   
757.500000	8.907462   
758.000000	8.888045   
758.500000	8.599780   
759.000000	8.453628   
759.500000	8.567022   
760.000000	8.861719   
760.500000	8.993378   
761.000000	8.804280   
761.500000	8.331090   
762.000000	8.019787   
762.500000	7.795045   
763.000000	7.614856   
763.500000	7.456060   
764.000000	7.530636   
764.500000	7.865772   
765.000000	8.169310   
765.500000	8.111348   
766.000000	7.883196   
766.500000	7.528969   
767.000000	7.069969   
767.500000	6.676916   
768.000000	6.590098   
768.500000	6.864075   
769.000000	7.160598   
769.500000	7.082462   
770.000000	6.773500   
770.500000	6.674098   
771.000000	6.674113   
771.500000	6.580727   
772.000000	6.227484   
772.500000	6.040598   
773.000000	5.924840   
773.500000	5.917257   
774.000000	5.858477   
774.500000	5.955257   
775.000000	5.968356   
775.500000	5.835340   
776.000000	5.503053   
776.500000	5.200704   
777.000000	5.107765   
777.500000	5.228083   
778.000000	5.507924   
778.500000	5.693628   
779.000000	5.702742   
779.500000	5.553287   
780.000000	5.422212   
780.500000	5.388659   
781.000000	5.308393   
781.500000	5.104287   
782.000000	4.987015   
782.500000	5.225840   
783.000000	5.421484   
783.500000	5.238848   
784.000000	4.748522   
784.500000	4.371704   
785.000000	4.406560   
785.500000	4.632083   
786.000000	4.925590   
786.500000	4.902757   
787.000000	4.732212   
787.500000	4.461954   
788.000000	4.455371   
788.500000	4.280583   
789.000000	4.174265   
789.500000	4.166886   
790.000000	4.615863   
790.500000	4.731621   
791.000000	4.531931   
791.500000	4.111621   
792.000000	4.267212   
792.500000	4.341833   
793.000000	4.270522   
793.500000	3.889750   
794.000000	3.952318   
794.500000	4.114295   
795.000000	4.190151   
795.500000	3.865143   
796.000000	3.586045   
796.500000	3.541522   
797.000000	3.765000   
797.500000	3.957689   
798.000000	3.939477   
798.500000	3.830689   
799.000000	3.742409   
799.500000	3.746356   
800.000000	3.701318   
800.500000	3.845825   
801.000000	4.031227   
801.500000	4.047318   
802.000000	3.597818   
802.500000	3.250136   
803.000000	3.188742   
803.500000	3.413386   
804.000000	3.445742   
804.500000	3.426060   
805.000000	3.376212   
805.500000	3.382462   
806.000000	3.307916   
806.500000	3.233651   
807.000000	3.075757   
807.500000	2.933234   
808.000000	2.876143   
808.500000	3.016416   
809.000000	3.196613   
809.500000	3.387393   
810.000000	3.450924   
810.500000	3.311840   
811.000000	3.056590   
811.500000	2.930992   
812.000000	3.008143   
812.500000	3.165742   
813.000000	3.197219   
813.500000	3.053378   
814.000000	2.824780   
814.500000	2.681333   
815.000000	2.690280   
815.500000	2.799492   
816.000000	2.852128   
816.500000	2.851424   
817.000000	2.839174   
817.500000	2.951500   
818.000000	3.023787   
818.500000	3.089363   
819.000000	3.048515   
819.500000	3.067689   
820.000000	2.930893   
820.500000	2.987643   
821.000000	3.128340   
821.500000	3.416696   
822.000000	3.531439   
822.500000	3.715204   
823.000000	3.856598   
823.500000	3.996030   
824.000000	3.984446   
824.500000	3.980719   
825.000000	3.804924   
825.500000	3.500984   
826.000000	3.203136   
826.500000	3.132916   
827.000000	3.078431   
827.500000	3.019659   
828.000000	2.933325   
828.500000	2.930704   
829.000000	2.900280   
829.500000	2.879530   
830.000000	2.878075   
830.500000	2.841053   
831.000000	2.730242   
831.500000	2.578371   
832.000000	2.476818   
832.500000	2.398477   
833.000000	2.446886   
833.500000	2.451719   
834.000000	2.405878   
834.500000	2.121810   
835.000000	1.890825   
835.500000	1.790954   
836.000000	1.902287   
836.500000	1.822022   
837.000000	1.666666   
837.500000	1.451113   
838.000000	1.382810   
838.500000	1.419257   
839.000000	1.462863   
839.500000	1.405818   
840.000000	1.240189   
840.500000	1.145734   
841.000000	1.073772   
841.500000	1.041833   
842.000000	0.925181   
842.500000	0.863265   
843.000000	0.879575   
843.500000	0.887492   
844.000000	0.809992   
844.500000	0.703477   
845.000000	0.643416   
845.500000	0.677303   
846.000000	0.763106   
846.500000	0.888742   
847.000000	0.931303   
847.500000	0.880121   
848.000000	0.693280   
848.500000	0.499734   
849.000000	0.346666   
849.500000	0.281295   
850.000000	0.410469   
850.500000	0.480098   
851.000000	0.534272   
851.500000	0.504833   
852.000000	0.605893   
852.500000	0.631310   
853.000000	0.522409   
853.500000	0.239750   
854.000000	0.096530   
854.500000	0.059522   
855.000000	0.140606   
855.500000	0.260257   
856.000000	0.391651   
856.500000	0.465212   
857.000000	0.402333   
857.500000	0.248477   
858.000000	0.180765   
858.500000	0.228007   
859.000000	0.168719   
859.500000	0.119045   
860.000000	0.053666   
860.500000	0.103689   
861.000000	0.098272   
861.500000	0.132613   
862.000000	0.175462   
862.500000	0.211143   
863.000000	0.111272   
863.500000	0.029909   
864.000000	0.002462   
864.500000	0.131000   
865.000000	0.245893   
865.500000	0.319265   
866.000000	0.330916   
866.500000	0.354393   
867.000000	0.295348   
867.500000	0.186075   
868.000000	0.136507   
868.500000	0.165636   
869.000000	0.210083   
869.500000	0.160522   
870.000000	0.121492   
870.500000	0.068484   
871.000000	0.060992   
871.500000	0.111401   
872.000000	0.200068   
872.500000	0.194787   
873.000000	0.099848   
873.500000	0.043522   
874.000000	0.054393   
874.500000	0.128825   
875.000000	0.170030   
875.500000	0.165265   
876.000000	0.163196   
876.500000	0.151780   
877.000000	0.162242   
877.500000	0.126068   
878.000000	0.073022   
878.500000	-0.014454  
879.000000	-0.050242  
879.500000	-0.023628  
880.000000	0.057386   
880.500000	0.112136   
881.000000	0.047666   
881.500000	-0.062492  
882.000000	-0.080378  
882.500000	0.021484   
883.000000	0.144325   
883.500000	0.096507   
884.000000	0.023954   
884.500000	-0.022303  
885.000000	0.040909   
885.500000	0.052446   
886.000000	0.062742   
886.500000	0.046333   
887.000000	-0.027068  
887.500000	-0.130863  
888.000000	-0.232984  
888.500000	-0.193090  
889.000000	-0.092901  
889.500000	0.007750   
890.000000	-0.000409  
890.500000	-0.057575  
891.000000	-0.101303  
891.500000	-0.071053  
892.000000	-0.003719  
892.500000	0.051098   
893.000000	0.088916   
893.500000	0.077068   
894.000000	0.039462   
894.500000	0.003159   
895.000000	-0.007886  
895.500000	0.018719   
896.000000	0.020689   
896.500000	0.018310   
897.000000	-0.017863  
897.500000	-0.039825  
898.000000	-0.061250  
898.500000	0.023257   
899.000000	0.101280   
899.500000	0.068522   
900.000000	-0.221681  
900.500000	-0.675000  

