PE FL                   SPECTRUM    ASCII       PEDS        1.60        
  -1
S11P.SP
24/04/05
12:29:20.00
24/04/05
12:30:43.00
Jan

900.500000
1









LS55
455.00
5.00
5.00
SCAN
1
20
100
100
0
400
0
1
0
1
5
ON
900 455 
1 0 0
#HDR
-1
-1
#GR
NM

0.00002384185791015625
0.0
460.000000
0.500000
882
8
334.124628
-0.447000
#DATA
460.000000	0.538000   
460.500000	0.222560   
461.000000	0.064469   
461.500000	0.091583   
462.000000	0.172363   
462.500000	0.220318   
463.000000	0.233310   
463.500000	0.256363   
464.000000	0.256257   
464.500000	0.194431   
465.000000	0.103030   
465.500000	-0.014772  
466.000000	-0.024386  
466.500000	-0.041083  
467.000000	-0.044151  
467.500000	-0.123303  
468.000000	-0.101250  
468.500000	-0.111704  
469.000000	-0.176787  
469.500000	-0.294015  
470.000000	-0.220931  
470.500000	0.059174   
471.000000	0.343022   
471.500000	0.422151   
472.000000	0.318401   
472.500000	0.148401   
473.000000	0.004015   
473.500000	0.019848   
474.000000	0.103757   
474.500000	0.111363   
475.000000	0.076878   
475.500000	0.111560   
476.000000	0.208113   
476.500000	0.289378   
477.000000	0.283500   
477.500000	0.339977   
478.000000	0.406704   
478.500000	0.335840   
479.000000	0.142136   
479.500000	0.042121   
480.000000	-0.007598  
480.500000	0.003363   
481.000000	-0.046946  
481.500000	-0.100643  
482.000000	-0.108583  
482.500000	-0.049159  
483.000000	0.037719   
483.500000	0.184151   
484.000000	0.208015   
484.500000	0.270583   
485.000000	0.307386   
485.500000	0.342856   
486.000000	0.212568   
486.500000	0.046371   
487.000000	-0.065310  
487.500000	0.028545   
488.000000	0.131946   
488.500000	0.104090   
489.000000	-0.018946  
489.500000	-0.064083  
490.000000	0.062750   
490.500000	0.215393   
491.000000	0.171348   
491.500000	0.031636   
492.000000	-0.006363  
492.500000	0.006022   
493.000000	0.026242   
493.500000	0.048901   
494.000000	0.181886   
494.500000	0.204598   
495.000000	0.083219   
495.500000	-0.042787  
496.000000	0.082083   
496.500000	0.236045   
497.000000	0.276818   
497.500000	0.322242   
498.000000	0.485477   
498.500000	0.573553   
499.000000	0.575431   
499.500000	0.565871   
500.000000	0.648113   
500.500000	0.718325   
501.000000	0.787272   
501.500000	0.887643   
502.000000	0.956939   
502.500000	0.899878   
503.000000	0.833249   
503.500000	0.860477   
504.000000	0.952999   
504.500000	1.110075   
505.000000	1.243500   
505.500000	1.234318   
506.000000	1.098681   
506.500000	1.248090   
507.000000	1.698598   
507.500000	2.114325   
508.000000	2.137098   
508.500000	2.101734   
509.000000	2.258954   
509.500000	2.525431   
510.000000	2.636674   
510.500000	2.736636   
511.000000	2.875128   
511.500000	2.958075   
512.000000	2.814886   
512.500000	2.704280   
513.000000	2.607113   
513.500000	2.634371   
514.000000	2.573750   
514.500000	2.755833   
515.000000	2.919962   
515.500000	3.043492   
516.000000	2.684234   
516.500000	2.506348   
517.000000	2.545272   
517.500000	2.973886   
518.000000	3.230121   
518.500000	3.393962   
519.000000	3.393719   
519.500000	3.294174   
520.000000	3.150696   
520.500000	2.999886   
521.000000	3.005522   
521.500000	2.910424   
522.000000	2.962060   
522.500000	3.144454   
523.000000	3.520424   
523.500000	3.648242   
524.000000	3.488287   
524.500000	3.201143   
525.000000	3.154386   
525.500000	3.200348   
526.000000	3.317378   
526.500000	3.179045   
527.000000	3.128121   
527.500000	3.084378   
528.000000	3.225272   
528.500000	3.124780   
529.000000	3.035446   
529.500000	2.886196   
530.000000	2.955901   
530.500000	2.953295   
531.000000	2.980340   
531.500000	3.168265   
532.000000	3.443151   
532.500000	3.521863   
533.000000	3.291803   
533.500000	2.982886   
534.000000	2.878598   
534.500000	2.910257   
535.000000	2.902924   
535.500000	2.762507   
536.000000	2.611507   
536.500000	2.535045   
537.000000	2.647083   
537.500000	2.797651   
538.000000	2.953462   
538.500000	3.180598   
539.000000	3.364204   
539.500000	3.368378   
540.000000	3.205159   
540.500000	3.284575   
541.000000	3.505204   
541.500000	3.568848   
542.000000	3.359333   
542.500000	3.213454   
543.000000	3.303871   
543.500000	3.484787   
544.000000	3.621484   
544.500000	3.752143   
545.000000	3.790803   
545.500000	3.851090   
546.000000	3.790060   
546.500000	3.729568   
547.000000	3.808856   
547.500000	3.942553   
548.000000	3.983280   
548.500000	3.908386   
549.000000	4.007242   
549.500000	4.151257   
550.000000	4.329280   
550.500000	4.292409   
551.000000	4.451393   
551.500000	4.557128   
552.000000	4.444727   
552.500000	4.201159   
553.000000	4.039780   
553.500000	4.150818   
554.000000	4.300250   
554.500000	4.307053   
555.000000	4.082515   
555.500000	3.953696   
556.000000	3.881159   
556.500000	4.073409   
557.000000	4.294045   
557.500000	4.433598   
558.000000	4.534128   
558.500000	4.628234   
559.000000	4.819750   
559.500000	4.906378   
560.000000	4.855386   
560.500000	4.395090   
561.000000	4.056446   
561.500000	3.896787   
562.000000	4.216136   
562.500000	4.384181   
563.000000	4.453765   
563.500000	4.406575   
564.000000	4.615583   
564.500000	4.758628   
565.000000	4.842189   
565.500000	4.804492   
566.000000	4.703477   
566.500000	4.574689   
567.000000	4.530219   
567.500000	4.591727   
568.000000	4.566022   
568.500000	4.403568   
569.000000	4.160121   
569.500000	4.076431   
570.000000	4.045212   
570.500000	4.113439   
571.000000	4.170022   
571.500000	4.319803   
572.000000	4.506757   
572.500000	4.749431   
573.000000	4.854234   
573.500000	4.841181   
574.000000	4.664750   
574.500000	4.547772   
575.000000	4.555545   
575.500000	4.594068   
576.000000	4.532568   
576.500000	4.265681   
577.000000	4.030310   
577.500000	4.011977   
578.000000	4.360378   
578.500000	4.713083   
579.000000	4.884886   
579.500000	4.672522   
580.000000	4.395219   
580.500000	4.405340   
581.000000	4.637984   
581.500000	4.878439   
582.000000	4.848515   
582.500000	4.741818   
583.000000	4.589446   
583.500000	4.615916   
584.000000	4.614469   
584.500000	4.772522   
585.000000	4.936128   
585.500000	5.129325   
586.000000	5.166795   
586.500000	5.206378   
587.000000	5.200840   
587.500000	5.370962   
588.000000	5.474931   
588.500000	5.623818   
589.000000	5.703500   
589.500000	5.901295   
590.000000	6.046068   
590.500000	6.105969   
591.000000	5.900696   
591.500000	5.684265   
592.000000	5.710439   
592.500000	5.801992   
593.000000	5.797378   
593.500000	5.596916   
594.000000	5.611409   
594.500000	5.907439   
595.000000	6.341340   
595.500000	6.473704   
596.000000	6.384265   
596.500000	6.351643   
597.000000	6.520863   
597.500000	6.789189   
598.000000	6.920742   
598.500000	6.956803   
599.000000	6.853295   
599.500000	6.670477   
600.000000	6.461772   
600.500000	6.653174   
601.000000	6.998015   
601.500000	7.389409   
602.000000	7.522113   
602.500000	7.613818   
603.000000	7.657522   
603.500000	7.869871   
604.000000	8.090878   
604.500000	8.471303   
605.000000	8.648371   
605.500000	8.591000   
606.000000	8.560818   
606.500000	8.800227   
607.000000	9.374219   
607.500000	9.828795   
608.000000	9.945022   
608.500000	9.781409   
609.000000	9.782424   
609.500000	9.790249   
610.000000	9.890818   
610.500000	9.663575   
611.000000	9.649537   
611.500000	9.855174   
612.000000	10.183643  
612.500000	10.168462  
613.000000	10.193825  
613.500000	10.341007  
614.000000	10.465939  
614.500000	10.130318  
615.000000	9.673787   
615.500000	9.532212   
616.000000	9.767909   
616.500000	9.950803   
617.000000	9.907780   
617.500000	9.741310   
618.000000	9.684787   
618.500000	9.846621   
619.000000	10.311439  
619.500000	10.725128  
620.000000	10.921954  
620.500000	11.132386  
621.000000	11.363772  
621.500000	11.606045  
622.000000	11.855196  
622.500000	12.263962  
623.000000	12.881484  
623.500000	13.278462  
624.000000	13.331409  
624.500000	13.425901  
625.000000	13.756628  
625.500000	14.260037  
626.000000	15.006712  
626.500000	15.861500  
627.000000	16.650704  
627.500000	17.089196  
628.000000	17.606015  
628.500000	18.190772  
629.000000	18.724712  
629.500000	18.807333  
630.000000	19.194310  
630.500000	20.154204  
631.000000	21.674219  
631.500000	23.043886  
632.000000	23.971727  
632.500000	24.734030  
633.000000	25.391984  
633.500000	25.935075  
634.000000	26.329249  
634.500000	26.821946  
635.000000	27.705007  
635.500000	28.748848  
636.000000	29.577090  
636.500000	30.160015  
637.000000	31.026742  
637.500000	31.972780  
638.000000	33.086227  
638.500000	34.248946  
639.000000	35.718803  
639.500000	37.188204  
640.000000	38.734484  
640.500000	40.336166  
641.000000	42.093000  
641.500000	43.609015  
642.000000	45.073659  
642.500000	46.527333  
643.000000	48.394386  
643.500000	50.003007  
644.000000	51.181977  
644.500000	51.637409  
645.000000	52.580977  
645.500000	54.674825  
646.000000	58.022257  
646.500000	60.443469  
647.000000	61.613295  
647.500000	62.725803  
648.000000	65.236878  
648.500000	67.833265  
649.000000	69.890174  
649.500000	71.604750  
650.000000	74.476378  
650.500000	77.135090  
651.000000	79.761227  
651.500000	82.148954  
652.000000	85.519772  
652.500000	87.944287  
653.000000	90.171719  
653.500000	92.032765  
654.000000	95.031303  
654.500000	99.235030  
655.000000	103.727030 
655.500000	107.222916 
656.000000	109.260840 
656.500000	111.614477 
657.000000	114.514893 
657.500000	118.494500 
658.000000	121.285704 
658.500000	124.240803 
659.000000	126.758159 
659.500000	130.063113 
660.000000	133.671780 
660.500000	139.037780 
661.000000	144.628280 
661.500000	149.979674 
662.000000	153.575431 
662.500000	155.498477 
663.000000	157.297022 
663.500000	159.854946 
664.000000	164.315969 
664.500000	168.811121 
665.000000	173.055242 
665.500000	176.658439 
666.000000	181.288560 
666.500000	185.849174 
667.000000	190.217795 
667.500000	194.681477 
668.000000	199.517977 
668.500000	204.077689 
669.000000	208.312060 
669.500000	211.816613 
670.000000	215.060742 
670.500000	218.165931 
671.000000	222.360689 
671.500000	226.982068 
672.000000	231.330946 
672.500000	235.494348 
673.000000	240.915128 
673.500000	246.363651 
674.000000	251.485181 
674.500000	254.625257 
675.000000	258.133030 
675.500000	261.840030 
676.000000	267.884636 
676.500000	272.383871 
677.000000	275.686000 
677.500000	277.700166 
678.000000	281.468613 
678.500000	285.627439 
679.000000	289.442719 
679.500000	293.028393 
680.000000	296.922568 
680.500000	301.504257 
681.000000	305.334386 
681.500000	308.384098 
682.000000	309.228924 
682.500000	310.281386 
683.000000	312.592712 
683.500000	316.675848 
684.000000	321.181795 
684.500000	323.576553 
685.000000	324.187628 
685.500000	324.891075 
686.000000	328.698568 
686.500000	332.221590 
687.000000	334.124628 
687.500000	333.050469 
688.000000	332.891727 
688.500000	333.358257 
689.000000	333.208522 
689.500000	332.523265 
690.000000	331.468689 
690.500000	331.022250 
691.000000	331.559871 
691.500000	332.347143 
692.000000	331.139196 
692.500000	328.824659 
693.000000	325.936166 
693.500000	323.710356 
694.000000	320.801878 
694.500000	317.921340 
695.000000	314.797871 
695.500000	311.496712 
696.000000	306.404825 
696.500000	301.246704 
697.000000	296.896257 
697.500000	293.563681 
698.000000	290.399939 
698.500000	286.822681 
699.000000	282.176325 
699.500000	275.824856 
700.000000	268.935318 
700.500000	262.716946 
701.000000	257.280712 
701.500000	251.876348 
702.000000	245.222196 
702.500000	239.920575 
703.000000	235.264272 
703.500000	231.377901 
704.000000	227.303310 
704.500000	222.706931 
705.000000	216.484803 
705.500000	209.542681 
706.000000	202.627106 
706.500000	197.762666 
707.000000	194.002757 
707.500000	189.854628 
708.000000	184.177492 
708.500000	178.531545 
709.000000	173.055159 
709.500000	169.387068 
710.000000	164.878598 
710.500000	159.877340 
711.000000	155.548886 
711.500000	152.096666 
712.000000	148.564409 
712.500000	143.581522 
713.000000	138.216371 
713.500000	133.381189 
714.000000	129.441007 
714.500000	125.777537 
715.000000	122.608484 
715.500000	119.398340 
716.000000	116.217280 
716.500000	112.393143 
717.000000	109.247772 
717.500000	106.571492 
718.000000	104.597166 
718.500000	101.197530 
719.000000	97.851696  
719.500000	94.577909  
720.000000	92.384174  
720.500000	89.733704  
721.000000	87.197303  
721.500000	84.908507  
722.000000	82.819492  
722.500000	79.791007  
723.000000	76.794045  
723.500000	74.505772  
724.000000	72.719666  
724.500000	70.348856  
725.000000	67.681878  
725.500000	65.328159  
726.000000	64.040363  
726.500000	62.465318  
727.000000	59.764204  
727.500000	56.449121  
728.000000	53.937772  
728.500000	52.546386  
729.000000	51.954196  
729.500000	51.171189  
730.000000	50.219598  
730.500000	48.737878  
731.000000	46.579143  
731.500000	44.235348  
732.000000	42.833772  
732.500000	42.312893  
733.000000	42.330371  
733.500000	41.809901  
734.000000	40.685257  
734.500000	39.434962  
735.000000	38.057833  
735.500000	36.525204  
736.000000	35.224242  
736.500000	34.239454  
737.000000	33.589022  
737.500000	32.780992  
738.000000	31.567507  
738.500000	30.273962  
739.000000	29.539621  
739.500000	29.021386  
740.000000	28.402863  
740.500000	27.509303  
741.000000	26.694689  
741.500000	26.276704  
742.000000	25.662227  
742.500000	24.763416  
743.000000	23.733083  
743.500000	23.023113  
744.000000	22.622909  
744.500000	22.386287  
745.000000	22.092537  
745.500000	21.644219  
746.000000	20.962363  
746.500000	20.102636  
747.000000	19.352583  
747.500000	18.757719  
748.000000	18.252325  
748.500000	17.802530  
749.000000	17.548174  
749.500000	17.359606  
750.000000	17.091424  
750.500000	16.664030  
751.000000	16.388325  
751.500000	16.056704  
752.000000	15.753856  
752.500000	15.441818  
753.000000	15.214371  
753.500000	14.930454  
754.000000	14.210189  
754.500000	13.535500  
755.000000	13.079507  
755.500000	13.028015  
756.000000	12.773696  
756.500000	12.317303  
757.000000	12.001348  
757.500000	11.978636  
758.000000	11.936765  
758.500000	11.631401  
759.000000	11.418863  
759.500000	11.263507  
760.000000	11.076977  
760.500000	10.648848  
761.000000	10.243393  
761.500000	10.044128  
762.000000	9.890378   
762.500000	9.643363   
763.000000	9.446250   
763.500000	9.434462   
764.000000	9.734136   
764.500000	9.683659   
765.000000	9.376492   
765.500000	8.939030   
766.000000	8.969250   
766.500000	8.949666   
767.000000	8.970363   
767.500000	8.734401   
768.000000	8.383310   
768.500000	7.871772   
769.000000	7.659484   
769.500000	7.641439   
770.000000	7.345492   
770.500000	6.742863   
771.000000	6.563189   
771.500000	6.843886   
772.000000	7.148310   
772.500000	6.880174   
773.000000	6.523666   
773.500000	6.164916   
774.000000	6.236053   
774.500000	6.416757   
775.000000	6.546999   
775.500000	6.202212   
776.000000	5.799500   
776.500000	5.628212   
777.000000	5.833598   
777.500000	5.929696   
778.000000	5.747477   
778.500000	5.326136   
779.000000	5.165780   
779.500000	5.135742   
780.000000	5.223227   
780.500000	5.110568   
781.000000	5.072659   
781.500000	4.984500   
782.000000	4.885113   
782.500000	4.683189   
783.000000	4.710068   
783.500000	4.888424   
784.000000	5.024954   
784.500000	4.835659   
785.000000	4.654234   
785.500000	4.661909   
786.000000	4.594318   
786.500000	4.342984   
787.000000	4.150075   
787.500000	4.302613   
788.000000	4.480696   
788.500000	4.391833   
789.000000	4.002810   
789.500000	3.714462   
790.000000	3.630886   
790.500000	3.592484   
791.000000	3.588462   
791.500000	3.506174   
792.000000	3.670833   
792.500000	3.663325   
793.000000	3.667212   
793.500000	3.555795   
794.000000	3.820727   
794.500000	3.856568   
795.000000	3.787015   
795.500000	3.484704   
796.000000	3.366590   
796.500000	3.288628   
797.000000	3.377166   
797.500000	3.415636   
798.000000	3.403469   
798.500000	3.212242   
799.000000	3.064469   
799.500000	3.022401   
800.000000	3.169787   
800.500000	3.224477   
801.000000	3.282606   
801.500000	3.091037   
802.000000	2.893000   
802.500000	2.739386   
803.000000	2.839068   
803.500000	2.975416   
804.000000	3.003840   
804.500000	2.920121   
805.000000	2.818484   
805.500000	2.785401   
806.000000	2.695871   
806.500000	2.654454   
807.000000	2.723416   
807.500000	2.885037   
808.000000	2.948401   
808.500000	2.872613   
809.000000	2.738750   
809.500000	2.602409   
810.000000	2.530348   
810.500000	2.565022   
811.000000	2.691583   
811.500000	2.812757   
812.000000	2.767507   
812.500000	2.669946   
813.000000	2.663378   
813.500000	2.755772   
814.000000	2.834992   
814.500000	2.724136   
815.000000	2.579053   
815.500000	2.530303   
816.000000	2.592992   
816.500000	2.629053   
817.000000	2.673340   
817.500000	2.733234   
818.000000	2.759151   
818.500000	2.748598   
819.000000	2.679037   
819.500000	2.684136   
820.000000	2.710128   
820.500000	2.783537   
821.000000	2.807674   
821.500000	2.771787   
822.000000	2.777727   
822.500000	2.856000   
823.000000	2.960386   
823.500000	2.917530   
824.000000	2.923909   
824.500000	2.944075   
825.000000	2.993666   
825.500000	2.911363   
826.000000	2.791068   
826.500000	2.694712   
827.000000	2.656825   
827.500000	2.685242   
828.000000	2.653893   
828.500000	2.647037   
829.000000	2.631234   
829.500000	2.717727   
830.000000	2.757621   
830.500000	2.513295   
831.000000	2.133181   
831.500000	1.844810   
832.000000	1.883666   
832.500000	1.974931   
833.000000	2.121939   
833.500000	2.094053   
834.000000	1.982257   
834.500000	1.724636   
835.000000	1.547795   
835.500000	1.507227   
836.000000	1.462992   
836.500000	1.315250   
837.000000	1.208583   
837.500000	1.226628   
838.000000	1.274242   
838.500000	1.270878   
839.000000	1.189757   
839.500000	1.120590   
840.000000	1.074227   
840.500000	0.995651   
841.000000	0.912159   
841.500000	0.850484   
842.000000	0.845636   
842.500000	0.851174   
843.000000	0.898045   
843.500000	0.886015   
844.000000	0.901621   
844.500000	0.805742   
845.000000	0.775265   
845.500000	0.772106   
846.000000	0.813310   
846.500000	0.789325   
847.000000	0.763484   
847.500000	0.721825   
848.000000	0.669015   
848.500000	0.610560   
849.000000	0.499810   
849.500000	0.448469   
850.000000	0.407015   
850.500000	0.462386   
851.000000	0.560795   
851.500000	0.691363   
852.000000	0.797954   
852.500000	0.726454   
853.000000	0.546696   
853.500000	0.344901   
854.000000	0.333522   
854.500000	0.372674   
855.000000	0.400946   
855.500000	0.326045   
856.000000	0.271863   
856.500000	0.316765   
857.000000	0.409916   
857.500000	0.443954   
858.000000	0.380780   
858.500000	0.299030   
859.000000	0.235469   
859.500000	0.121151   
860.000000	-0.040962  
860.500000	-0.217613  
861.000000	-0.260015  
861.500000	-0.165575  
862.000000	-0.042659  
862.500000	0.001007   
863.000000	0.011984   
863.500000	0.122962   
864.000000	0.240916   
864.500000	0.269113   
865.000000	0.147537   
865.500000	-0.010280  
866.000000	-0.017931  
866.500000	0.059833   
867.000000	0.124409   
867.500000	0.071704   
868.000000	0.032757   
868.500000	0.127272   
869.000000	0.241378   
869.500000	0.215227   
870.000000	0.083666   
870.500000	-0.056871  
871.000000	-0.192962  
871.500000	-0.161507  
872.000000	-0.006893  
872.500000	0.173681   
873.000000	0.159431   
873.500000	0.080886   
874.000000	0.055977   
874.500000	0.164166   
875.000000	0.099787   
875.500000	0.032363   
876.000000	-0.054553  
876.500000	0.001863   
877.000000	-0.047560  
877.500000	-0.062166  
878.000000	-0.098977  
878.500000	0.090772   
879.000000	0.264984   
879.500000	0.361962   
880.000000	0.281378   
880.500000	0.216143   
881.000000	0.174477   
881.500000	0.124606   
882.000000	0.018075   
882.500000	-0.065401  
883.000000	-0.048227  
883.500000	0.029545   
884.000000	0.118886   
884.500000	0.074689   
885.000000	-0.017734  
885.500000	-0.127568  
886.000000	-0.155924  
886.500000	-0.183916  
887.000000	-0.103075  
887.500000	-0.053189  
888.000000	0.040901   
888.500000	0.059969   
889.000000	0.037992   
889.500000	-0.129257  
890.000000	-0.301507  
890.500000	-0.306166  
891.000000	-0.154651  
891.500000	-0.043651  
892.000000	-0.089454  
892.500000	-0.069462  
893.000000	-0.007113  
893.500000	0.093212   
894.000000	0.053886   
894.500000	0.008810   
895.000000	-0.067204  
895.500000	-0.042795  
896.000000	-0.039068  
896.500000	0.046196   
897.000000	0.048083   
897.500000	0.034310   
898.000000	-0.058007  
898.500000	-0.110863  
899.000000	-0.188386  
899.500000	-0.259189  
900.000000	-0.366196  
900.500000	-0.447000  

