PE FL                   SPECTRUM    ASCII       PEDS        1.60        
  -1
S19P.SP
24/04/05
12:51:55.00
24/04/05
12:53:18.00
Jan

900.500000
1









LS55
455.00
5.00
5.00
SCAN
1
20
100
100
0
400
0
1
0
1
5
ON
900 455 
1 0 0
#HDR
-1
-1
#GR
NM

0.00002384185791015625
0.0
460.000000
0.500000
882
8
148.650742
-0.336159
#DATA
460.000000	0.182000   
460.500000	-0.160037  
461.000000	-0.201787  
461.500000	-0.050727  
462.000000	-0.063045  
462.500000	-0.186666  
463.000000	-0.307409  
463.500000	-0.275106  
464.000000	-0.320121  
464.500000	-0.310431  
465.000000	-0.246924  
465.500000	-0.049189  
466.000000	0.050424   
466.500000	-0.022280  
467.000000	-0.224545  
467.500000	-0.336159  
468.000000	-0.288719  
468.500000	-0.226348  
469.000000	-0.251598  
469.500000	-0.275439  
470.000000	-0.114439  
470.500000	0.222204   
471.000000	0.435871   
471.500000	0.371500   
472.000000	0.102901   
472.500000	-0.148151  
473.000000	-0.263893  
473.500000	-0.330590  
474.000000	-0.262901  
474.500000	-0.191325  
475.000000	-0.096780  
475.500000	-0.167234  
476.000000	-0.224636  
476.500000	-0.202356  
477.000000	-0.146962  
477.500000	-0.089212  
478.000000	-0.088000  
478.500000	0.039469   
479.000000	0.116772   
479.500000	0.148386   
480.000000	0.063219   
480.500000	-0.008818  
481.000000	-0.056121  
481.500000	-0.108803  
482.000000	-0.114469  
482.500000	-0.074742  
483.000000	0.091893   
483.500000	0.231333   
484.000000	0.216704   
484.500000	0.016454   
485.000000	-0.219090  
485.500000	-0.256840  
486.000000	-0.141765  
486.500000	-0.025454  
487.000000	-0.074492  
487.500000	-0.110143  
488.000000	-0.094393  
488.500000	0.134196   
489.000000	0.314045   
489.500000	0.368348   
490.000000	0.200666   
490.500000	0.100636   
491.000000	0.019446   
491.500000	0.053575   
492.000000	-0.004303  
492.500000	0.045719   
493.000000	0.111590   
493.500000	0.193151   
494.000000	0.141000   
494.500000	0.073250   
495.000000	0.006280   
495.500000	0.070068   
496.000000	0.181068   
496.500000	0.201090   
497.000000	0.154583   
497.500000	0.169196   
498.000000	0.290636   
498.500000	0.318674   
499.000000	0.296060   
499.500000	0.371310   
500.000000	0.604068   
500.500000	0.746553   
501.000000	0.801053   
501.500000	0.810984   
502.000000	0.857636   
502.500000	0.834386   
503.000000	0.826204   
503.500000	0.913409   
504.000000	1.024765   
504.500000	1.175219   
505.000000	1.177325   
505.500000	1.266393   
506.000000	1.390734   
506.500000	1.673303   
507.000000	1.760590   
507.500000	1.829553   
508.000000	1.829803   
508.500000	1.956825   
509.000000	2.032106   
509.500000	2.101022   
510.000000	2.270575   
510.500000	2.457424   
511.000000	2.606765   
511.500000	2.655431   
512.000000	2.735803   
512.500000	2.715719   
513.000000	2.779515   
513.500000	2.786787   
514.000000	2.992280   
514.500000	3.177356   
515.000000	3.247083   
515.500000	3.022537   
516.000000	2.962545   
516.500000	3.069750   
517.000000	3.239280   
517.500000	3.092507   
518.000000	2.907674   
518.500000	2.964969   
519.000000	3.372946   
519.500000	3.792469   
520.000000	3.966007   
520.500000	3.773287   
521.000000	3.449045   
521.500000	3.387833   
522.000000	3.498007   
522.500000	3.662598   
523.000000	3.655159   
523.500000	3.538515   
524.000000	3.481371   
524.500000	3.493462   
525.000000	3.490583   
525.500000	3.330378   
526.000000	3.368386   
526.500000	3.504151   
527.000000	3.774825   
527.500000	3.765007   
528.000000	3.770825   
528.500000	3.779575   
529.000000	3.800492   
529.500000	3.641340   
530.000000	3.303613   
530.500000	3.111969   
531.000000	3.225189   
531.500000	3.532015   
532.000000	3.514212   
532.500000	3.234492   
533.000000	3.038015   
533.500000	3.043553   
534.000000	3.070257   
534.500000	3.126696   
535.000000	3.323181   
535.500000	3.483371   
536.000000	3.377196   
536.500000	3.129068   
537.000000	3.006878   
537.500000	3.113022   
538.000000	3.216401   
538.500000	3.466333   
539.000000	3.682287   
539.500000	3.762939   
540.000000	3.737568   
540.500000	3.721954   
541.000000	3.797401   
541.500000	3.709515   
542.000000	3.596727   
542.500000	3.560886   
543.000000	3.849795   
543.500000	4.146454   
544.000000	4.494121   
544.500000	4.497098   
545.000000	4.198265   
545.500000	3.777424   
546.000000	3.870219   
546.500000	4.239090   
547.000000	4.574378   
547.500000	4.502333   
548.000000	4.421522   
548.500000	4.336378   
549.000000	4.349083   
549.500000	4.223840   
550.000000	4.208462   
550.500000	4.354795   
551.000000	4.549007   
551.500000	4.667621   
552.000000	4.514992   
552.500000	4.391590   
553.000000	4.510075   
553.500000	4.929530   
554.000000	5.104772   
554.500000	5.074598   
555.000000	4.716295   
555.500000	4.462401   
556.000000	4.529734   
556.500000	4.802340   
557.000000	4.986121   
557.500000	4.950272   
558.000000	4.895484   
558.500000	4.945704   
559.000000	4.916454   
559.500000	4.618886   
560.000000	4.565772   
560.500000	4.905749   
561.000000	5.262469   
561.500000	5.165181   
562.000000	4.837083   
562.500000	4.787409   
563.000000	5.007530   
563.500000	4.948212   
564.000000	4.591787   
564.500000	4.269371   
565.000000	4.305446   
565.500000	4.640659   
566.000000	4.962401   
566.500000	5.107893   
567.000000	4.989734   
567.500000	4.812787   
568.000000	4.800166   
568.500000	5.035348   
569.000000	5.287515   
569.500000	5.301348   
570.000000	5.129856   
570.500000	4.878659   
571.000000	4.693772   
571.500000	4.466530   
572.000000	4.417651   
572.500000	4.622522   
573.000000	5.059977   
573.500000	5.353863   
574.000000	5.307037   
574.500000	5.111545   
575.000000	5.051234   
575.500000	5.257765   
576.000000	5.324022   
576.500000	5.181166   
577.000000	4.868083   
577.500000	4.758022   
578.000000	4.740454   
578.500000	4.837409   
579.000000	4.917621   
579.500000	5.112795   
580.000000	5.272613   
580.500000	5.415280   
581.000000	5.341219   
581.500000	5.188954   
582.000000	4.910295   
582.500000	4.892272   
583.000000	4.928303   
583.500000	5.276106   
584.000000	5.604454   
584.500000	5.854984   
585.000000	5.783651   
585.500000	5.655674   
586.000000	5.551401   
586.500000	5.360280   
587.000000	5.318181   
587.500000	5.401893   
588.000000	5.819848   
588.500000	5.973590   
589.000000	5.870840   
589.500000	5.679280   
590.000000	5.740606   
590.500000	5.973227   
591.000000	6.247704   
591.500000	6.431984   
592.000000	6.425628   
592.500000	6.453590   
593.000000	6.315674   
593.500000	6.254787   
594.000000	6.245750   
594.500000	6.505106   
595.000000	6.839575   
595.500000	7.068181   
596.000000	7.059583   
596.500000	6.982840   
597.000000	6.972234   
597.500000	6.889924   
598.000000	6.837749   
598.500000	6.779553   
599.000000	6.857310   
599.500000	6.971871   
600.000000	7.155666   
600.500000	7.383704   
601.000000	7.445045   
601.500000	7.457909   
602.000000	7.662893   
602.500000	8.062742   
603.000000	8.262560   
603.500000	8.183522   
604.000000	8.267636   
604.500000	8.364621   
605.000000	8.426045   
605.500000	8.183015   
606.000000	8.214053   
606.500000	8.545674   
607.000000	9.009992   
607.500000	9.346863   
608.000000	9.784530   
608.500000	10.068189  
609.000000	10.025492  
609.500000	9.722863   
610.000000	9.444333   
610.500000	9.477727   
611.000000	9.572280   
611.500000	9.610977   
612.000000	9.353909   
612.500000	9.069462   
613.000000	8.873946   
613.500000	9.138446   
614.000000	9.395106   
614.500000	9.250212   
615.000000	8.759772   
615.500000	8.414537   
616.000000	8.440083   
616.500000	8.224037   
617.000000	7.738643   
617.500000	7.255234   
618.000000	7.609371   
618.500000	8.069651   
619.000000	8.180363   
619.500000	8.021348   
620.000000	8.423666   
620.500000	9.148787   
621.000000	9.622606   
621.500000	9.535878   
622.000000	9.516969   
622.500000	9.594053   
623.000000	9.660787   
623.500000	9.563469   
624.000000	9.663590   
624.500000	10.187651  
625.000000	10.881962  
625.500000	11.449969  
626.000000	11.841719  
626.500000	12.179977  
627.000000	12.164416  
627.500000	11.983575  
628.000000	11.937712  
628.500000	12.407386  
629.000000	13.031045  
629.500000	13.585151  
630.000000	13.939113  
630.500000	14.103681  
631.000000	13.914818  
631.500000	13.856068  
632.000000	14.294196  
632.500000	15.359848  
633.000000	16.418651  
633.500000	17.243636  
634.000000	17.545568  
634.500000	17.545333  
635.000000	17.486901  
635.500000	17.698446  
636.000000	18.377416  
636.500000	19.030295  
637.000000	19.322909  
637.500000	19.382090  
638.000000	19.564924  
638.500000	20.175621  
639.000000	21.103469  
639.500000	22.052954  
640.000000	22.655750  
640.500000	23.458265  
641.000000	24.300962  
641.500000	25.409666  
642.000000	25.510181  
642.500000	25.718416  
643.000000	26.282287  
643.500000	27.853946  
644.000000	28.916280  
644.500000	29.563537  
645.000000	29.672446  
645.500000	30.547242  
646.000000	31.826515  
646.500000	33.210583  
647.000000	34.114015  
647.500000	34.834068  
648.000000	35.504810  
648.500000	36.578348  
649.000000	37.407295  
649.500000	38.138386  
650.000000	38.741818  
650.500000	39.434651  
651.000000	40.661060  
651.500000	42.370590  
652.000000	43.972522  
652.500000	45.351469  
653.000000	46.630015  
653.500000	47.641143  
654.000000	48.580151  
654.500000	49.575515  
655.000000	51.143742  
655.500000	52.936037  
656.000000	54.255409  
656.500000	55.402037  
657.000000	57.073090  
657.500000	59.267242  
658.000000	60.991287  
658.500000	61.323250  
659.000000	60.908651  
659.500000	61.530659  
660.000000	64.414287  
660.500000	68.244303  
661.000000	71.245878  
661.500000	72.333386  
662.000000	72.970189  
662.500000	74.494833  
663.000000	76.885613  
663.500000	79.087136  
664.000000	79.702196  
664.500000	80.514295  
665.000000	82.076424  
665.500000	85.070742  
666.000000	87.030583  
666.500000	88.830916  
667.000000	90.057227  
667.500000	92.188174  
668.000000	94.073962  
668.500000	95.570712  
669.000000	96.079537  
669.500000	97.270984  
670.000000	99.263454  
670.500000	102.215068 
671.000000	104.494916 
671.500000	105.750378 
672.000000	106.744060 
672.500000	107.797901 
673.000000	108.796416 
673.500000	110.152356 
674.000000	112.336651 
674.500000	114.220431 
675.000000	116.172060 
675.500000	118.222727 
676.000000	120.439212 
676.500000	122.874257 
677.000000	124.737787 
677.500000	126.460659 
678.000000	127.145696 
678.500000	127.424181 
679.000000	128.305045 
679.500000	130.847378 
680.000000	133.630689 
680.500000	135.219462 
681.000000	135.974242 
681.500000	136.151818 
682.000000	137.937803 
682.500000	139.523159 
683.000000	141.395878 
683.500000	142.142000 
684.000000	143.291719 
684.500000	143.791742 
685.000000	144.495181 
685.500000	144.334477 
686.000000	144.725037 
686.500000	145.126833 
687.000000	146.770962 
687.500000	148.092787 
688.000000	148.650742 
688.500000	147.719068 
689.000000	146.877780 
689.500000	146.400909 
690.000000	146.425022 
690.500000	145.899704 
691.000000	145.318530 
691.500000	144.908939 
692.000000	144.643106 
692.500000	142.829022 
693.000000	140.577348 
693.500000	139.182068 
694.000000	139.400022 
694.500000	138.281810 
695.000000	135.837553 
695.500000	132.281795 
696.000000	129.810053 
696.500000	127.414348 
697.000000	126.301363 
697.500000	125.502386 
698.000000	123.991696 
698.500000	120.463469 
699.000000	117.847477 
699.500000	116.647371 
700.000000	116.028537 
700.500000	113.424893 
701.000000	109.586984 
701.500000	106.293560 
702.000000	104.047310 
702.500000	102.264492 
703.000000	100.537477 
703.500000	98.432719  
704.000000	95.559977  
704.500000	92.385287  
705.000000	89.150212  
705.500000	87.043507  
706.000000	85.455393  
706.500000	83.442037  
707.000000	80.393287  
707.500000	77.105628  
708.000000	75.026939  
708.500000	73.830583  
709.000000	73.128378  
709.500000	71.915378  
710.000000	70.777803  
710.500000	68.820984  
711.000000	66.935954  
711.500000	64.795287  
712.000000	63.312075  
712.500000	61.771522  
713.000000	60.044227  
713.500000	58.004803  
714.000000	56.686810  
714.500000	55.738189  
715.000000	54.727659  
715.500000	52.496060  
716.000000	50.149727  
716.500000	48.061189  
717.000000	47.448590  
717.500000	47.030250  
718.000000	46.486356  
718.500000	44.532439  
719.000000	42.342265  
719.500000	40.562886  
720.000000	39.602689  
720.500000	38.802803  
721.000000	38.150272  
721.500000	37.640454  
722.000000	36.918780  
722.500000	35.638068  
723.000000	34.172583  
723.500000	33.261583  
724.000000	33.202962  
724.500000	32.577636  
725.000000	31.007363  
725.500000	28.971560  
726.000000	27.616189  
726.500000	27.339765  
727.000000	27.438196  
727.500000	27.154007  
728.000000	26.035681  
728.500000	24.780931  
729.000000	23.863234  
729.500000	23.510363  
730.000000	22.939272  
730.500000	22.237128  
731.000000	21.632848  
731.500000	21.073575  
732.000000	20.398530  
732.500000	19.813969  
733.000000	19.513750  
733.500000	19.647803  
734.000000	19.621848  
734.500000	19.258477  
735.000000	18.370022  
735.500000	17.683856  
736.000000	17.407340  
736.500000	17.479787  
737.000000	17.035280  
737.500000	16.198810  
738.000000	15.333462  
738.500000	15.183356  
739.000000	15.237750  
739.500000	15.092734  
740.000000	14.483810  
740.500000	13.926939  
741.000000	13.632196  
741.500000	13.565250  
742.000000	13.497181  
742.500000	13.438371  
743.000000	13.248742  
743.500000	12.668325  
744.000000	12.106015  
744.500000	11.681174  
745.000000	11.494772  
745.500000	11.251037  
746.000000	10.940515  
746.500000	10.764045  
747.000000	10.585651  
747.500000	10.487810  
748.000000	10.229287  
748.500000	9.998568   
749.000000	9.589499   
749.500000	9.618060   
750.000000	9.677962   
750.500000	9.997015   
751.000000	9.949257   
751.500000	9.832704   
752.000000	9.201295   
752.500000	8.593416   
753.000000	8.075795   
753.500000	8.212477   
754.000000	8.220871   
754.500000	8.027166   
755.000000	7.554757   
755.500000	7.539356   
756.000000	7.808825   
756.500000	8.186909   
757.000000	8.044393   
757.500000	7.550439   
758.000000	6.903409   
758.500000	6.661136   
759.000000	6.797333   
759.500000	7.031106   
760.000000	6.977416   
760.500000	6.788393   
761.000000	6.795030   
761.500000	6.971295   
762.000000	7.051143   
762.500000	6.880522   
763.000000	6.684507   
763.500000	6.572787   
764.000000	6.648803   
764.500000	6.479303   
765.000000	6.212098   
765.500000	5.795318   
766.000000	5.665151   
766.500000	5.669878   
767.000000	5.755500   
767.500000	5.636401   
768.000000	5.331704   
768.500000	5.016484   
769.000000	4.835795   
769.500000	4.975045   
770.000000	4.973856   
770.500000	5.097386   
771.000000	5.120530   
771.500000	5.073984   
772.000000	4.663780   
772.500000	4.389568   
773.000000	4.464000   
773.500000	4.749219   
774.000000	4.868280   
774.500000	4.786545   
775.000000	4.569030   
775.500000	4.297068   
776.000000	4.190166   
776.500000	4.041250   
777.000000	3.902696   
777.500000	3.762848   
778.000000	3.894030   
778.500000	4.070424   
779.000000	4.081431   
779.500000	3.904545   
780.000000	3.888068   
780.500000	3.884560   
781.000000	3.935000   
781.500000	3.768984   
782.000000	3.670651   
782.500000	3.555454   
783.000000	3.477515   
783.500000	3.137431   
784.000000	2.970575   
784.500000	3.048378   
785.000000	3.381083   
785.500000	3.461643   
786.000000	3.321037   
786.500000	3.132780   
787.000000	3.059727   
787.500000	2.997462   
788.000000	3.082787   
788.500000	3.125409   
789.000000	3.129030   
789.500000	2.948840   
790.000000	2.915022   
790.500000	2.934901   
791.000000	3.011863   
791.500000	2.929962   
792.000000	2.859462   
792.500000	2.795196   
793.000000	2.875295   
793.500000	2.973946   
794.000000	3.008787   
794.500000	2.880568   
795.000000	2.812659   
795.500000	2.824833   
796.000000	2.922568   
796.500000	2.970803   
797.000000	2.946666   
797.500000	2.810098   
798.000000	2.650128   
798.500000	2.635090   
799.000000	2.733469   
799.500000	2.794015   
800.000000	2.691363   
800.500000	2.634560   
801.000000	2.683500   
801.500000	2.804757   
802.000000	2.771666   
802.500000	2.764575   
803.000000	2.779787   
803.500000	2.848537   
804.000000	2.798636   
804.500000	2.732863   
805.000000	2.570303   
805.500000	2.480750   
806.000000	2.411098   
806.500000	2.448045   
807.000000	2.493280   
807.500000	2.530522   
808.000000	2.396212   
808.500000	2.149787   
809.000000	1.949750   
809.500000	1.974825   
810.000000	2.109045   
810.500000	2.193212   
811.000000	2.280507   
811.500000	2.361984   
812.000000	2.397500   
812.500000	2.302303   
813.000000	2.258992   
813.500000	2.249401   
814.000000	2.347303   
814.500000	2.442409   
815.000000	2.421704   
815.500000	2.305272   
816.000000	2.245931   
816.500000	2.376681   
817.000000	2.463757   
817.500000	2.482742   
818.000000	2.416060   
818.500000	2.462484   
819.000000	2.500840   
819.500000	2.577227   
820.000000	2.669825   
820.500000	2.641053   
821.000000	2.533613   
821.500000	2.435272   
822.000000	2.649348   
822.500000	2.802409   
823.000000	2.823848   
823.500000	2.716242   
824.000000	2.842507   
824.500000	2.804151   
825.000000	2.823393   
825.500000	2.863977   
826.000000	3.125416   
826.500000	3.105757   
827.000000	2.827545   
827.500000	2.423575   
828.000000	2.336500   
828.500000	2.293439   
829.000000	2.285030   
829.500000	2.195174   
830.000000	2.167878   
830.500000	2.051121   
831.000000	1.827901   
831.500000	1.543242   
832.000000	1.569310   
832.500000	1.806946   
833.000000	2.016303   
833.500000	1.863727   
834.000000	1.512931   
834.500000	1.253803   
835.000000	1.309454   
835.500000	1.556181   
836.000000	1.729560   
836.500000	1.578500   
837.000000	1.255515   
837.500000	0.989136   
838.000000	0.968340   
838.500000	1.043378   
839.000000	1.065856   
839.500000	0.976272   
840.000000	0.931174   
840.500000	0.854424   
841.000000	0.794272   
841.500000	0.730007   
842.000000	0.768689   
842.500000	0.825181   
843.000000	0.843803   
843.500000	0.710166   
844.000000	0.653454   
844.500000	0.713333   
845.000000	0.876204   
845.500000	0.948931   
846.000000	1.011939   
846.500000	0.938136   
847.000000	0.841265   
847.500000	0.674469   
848.000000	0.582795   
848.500000	0.536848   
849.000000	0.546446   
849.500000	0.478825   
850.000000	0.414537   
850.500000	0.332295   
851.000000	0.362727   
851.500000	0.434250   
852.000000	0.498666   
852.500000	0.402727   
853.000000	0.309098   
853.500000	0.248333   
854.000000	0.306659   
854.500000	0.307492   
855.000000	0.282378   
855.500000	0.196234   
856.000000	0.166310   
856.500000	0.077287   
857.000000	0.037348   
857.500000	0.018310   
858.000000	0.005825   
858.500000	-0.090886  
859.000000	-0.114431  
859.500000	-0.002962  
860.000000	0.110196   
860.500000	0.092393   
861.000000	-0.026863  
861.500000	-0.002977  
862.000000	0.100454   
862.500000	0.227507   
863.000000	0.300189   
863.500000	0.362560   
864.000000	0.287356   
864.500000	0.108871   
865.000000	-0.020053  
865.500000	0.024060   
866.000000	0.127280   
866.500000	0.207628   
867.000000	0.250333   
867.500000	0.210469   
868.000000	0.063151   
868.500000	-0.102098  
869.000000	-0.178015  
869.500000	-0.113166  
870.000000	-0.037416  
870.500000	0.043325   
871.000000	0.048863   
871.500000	0.030825   
872.000000	-0.096750  
872.500000	-0.187825  
873.000000	-0.190257  
873.500000	-0.014037  
874.000000	0.125613   
874.500000	0.100378   
875.000000	-0.056363  
875.500000	-0.130621  
876.000000	-0.032196  
876.500000	0.005537   
877.000000	-0.075219  
877.500000	-0.203075  
878.000000	-0.157371  
878.500000	0.014575   
879.000000	0.123689   
879.500000	0.083000   
880.000000	-0.004212  
880.500000	0.003416   
881.000000	0.013833   
881.500000	0.013242   
882.000000	-0.065484  
882.500000	-0.093848  
883.000000	-0.068409  
883.500000	-0.001318  
884.000000	0.079772   
884.500000	0.089310   
885.000000	0.077522   
885.500000	-0.001113  
886.000000	-0.089083  
886.500000	-0.235333  
887.000000	-0.212280  
887.500000	-0.078825  
888.000000	0.070969   
888.500000	-0.048143  
889.000000	-0.252424  
889.500000	-0.327053  
890.000000	-0.153318  
890.500000	0.072484   
891.000000	0.186128   
891.500000	0.158143   
892.000000	-0.031060  
892.500000	-0.170545  
893.000000	-0.234234  
893.500000	-0.176825  
894.000000	-0.171507  
894.500000	-0.232674  
895.000000	-0.246537  
895.500000	-0.139954  
896.000000	-0.042378  
896.500000	0.003621   
897.000000	0.008765   
897.500000	-0.002848  
898.000000	-0.051712  
898.500000	-0.126401  
899.000000	-0.193083  
899.500000	-0.141863  
900.000000	-0.012189  
900.500000	0.240000   

