PE FL                   SPECTRUM    ASCII       PEDS        1.60        
  -1
S13P.SP
24/04/05
12:35:37.00
24/04/05
12:37:00.00
Jan

900.500000
1









LS55
455.00
5.00
5.00
SCAN
1
20
100
100
0
400
0
1
0
1
5
ON
900 455 
1 0 0
#HDR
-1
-1
#GR
NM

0.00002384185791015625
0.0
460.000000
0.500000
882
8
241.549083
-0.367462
#DATA
460.000000	-0.060000  
460.500000	0.009151   
461.000000	0.020022   
461.500000	0.039386   
462.000000	0.077060   
462.500000	0.047500   
463.000000	-0.079568  
463.500000	-0.095159  
464.000000	0.008212   
464.500000	0.160393   
465.000000	0.194863   
465.500000	0.103212   
466.000000	-0.095515  
466.500000	-0.187727  
467.000000	-0.248568  
467.500000	-0.218045  
468.000000	-0.223151  
468.500000	-0.033507  
469.000000	0.049560   
469.500000	-0.013045  
470.000000	-0.242757  
470.500000	-0.208651  
471.000000	0.001212   
471.500000	0.163234   
472.000000	0.030106   
472.500000	-0.182098  
473.000000	-0.232704  
473.500000	-0.154651  
474.000000	0.029250   
474.500000	0.070840   
475.000000	0.028090   
475.500000	-0.221106  
476.000000	-0.367462  
476.500000	-0.325151  
477.000000	-0.082537  
477.500000	-0.045151  
478.000000	-0.081234  
478.500000	-0.108204  
479.000000	0.046242   
479.500000	0.182287   
480.000000	0.163106   
480.500000	-0.104007  
481.000000	-0.247484  
481.500000	-0.114068  
482.000000	0.290325   
482.500000	0.333250   
483.000000	0.096704   
483.500000	-0.174704  
484.000000	-0.056507  
484.500000	0.011590   
485.000000	0.078651   
485.500000	-0.009053  
486.000000	0.049477   
486.500000	0.098386   
487.000000	0.210871   
487.500000	0.244537   
488.000000	0.175583   
488.500000	0.102242   
489.000000	0.067265   
489.500000	0.072295   
490.000000	0.065931   
490.500000	0.204454   
491.000000	0.322666   
491.500000	0.295401   
492.000000	0.188219   
492.500000	0.115825   
493.000000	0.072893   
493.500000	-0.089181  
494.000000	-0.133575  
494.500000	-0.048143  
495.000000	0.155174   
495.500000	0.263098   
496.000000	0.463484   
496.500000	0.426863   
497.000000	0.341136   
497.500000	0.192007   
498.000000	0.284037   
498.500000	0.376992   
499.000000	0.512378   
499.500000	0.592174   
500.000000	0.695530   
500.500000	0.648507   
501.000000	0.579113   
501.500000	0.575348   
502.000000	0.656742   
502.500000	0.695772   
503.000000	0.775515   
503.500000	0.860969   
504.000000	1.012000   
504.500000	1.069015   
505.000000	1.124553   
505.500000	1.213143   
506.000000	1.285712   
506.500000	1.479803   
507.000000	1.752098   
507.500000	2.103833   
508.000000	2.248893   
508.500000	2.342303   
509.000000	2.334969   
509.500000	2.439598   
510.000000	2.496545   
510.500000	2.657969   
511.000000	2.801287   
511.500000	2.880977   
512.000000	2.743287   
512.500000	2.758272   
513.000000	2.853583   
513.500000	3.042090   
514.000000	3.068477   
514.500000	2.941462   
515.000000	2.829106   
515.500000	2.832280   
516.000000	2.981303   
516.500000	3.071969   
517.000000	3.167590   
517.500000	3.159204   
518.000000	3.290818   
518.500000	3.136681   
519.000000	2.981803   
519.500000	2.955954   
520.000000	3.287386   
520.500000	3.418765   
521.000000	3.359378   
521.500000	3.172287   
522.000000	3.100113   
522.500000	2.865037   
523.000000	2.872196   
523.500000	3.154840   
524.000000	3.579969   
524.500000	3.679280   
525.000000	3.545265   
525.500000	3.282727   
526.000000	3.092909   
526.500000	3.017000   
527.000000	3.161969   
527.500000	3.440772   
528.000000	3.646454   
528.500000	3.758848   
529.000000	3.752060   
529.500000	3.773621   
530.000000	3.639924   
530.500000	3.541151   
531.000000	3.411212   
531.500000	3.507712   
532.000000	3.420249   
532.500000	3.312371   
533.000000	3.050621   
533.500000	3.078439   
534.000000	3.165878   
534.500000	3.384295   
535.000000	3.387492   
535.500000	3.313931   
536.000000	3.227871   
536.500000	3.180143   
537.000000	3.099666   
537.500000	3.026787   
538.000000	3.057022   
538.500000	3.097825   
539.000000	3.307863   
539.500000	3.584765   
540.000000	3.850924   
540.500000	3.689265   
541.000000	3.518151   
541.500000	3.517500   
542.000000	3.797333   
542.500000	3.912143   
543.000000	3.925045   
543.500000	3.862568   
544.000000	3.896590   
544.500000	3.856977   
545.000000	3.764333   
545.500000	3.808530   
546.000000	4.007227   
546.500000	4.167431   
547.000000	4.036166   
547.500000	3.933484   
548.000000	4.030113   
548.500000	4.387280   
549.000000	4.618348   
549.500000	4.699227   
550.000000	4.447492   
550.500000	4.217037   
551.000000	4.088537   
551.500000	4.285318   
552.000000	4.490007   
552.500000	4.467060   
553.000000	4.170643   
553.500000	3.961060   
554.000000	4.108621   
554.500000	4.492310   
555.000000	4.639492   
555.500000	4.410893   
556.000000	4.134446   
556.500000	4.343007   
557.000000	4.819931   
557.500000	5.144681   
558.000000	4.990954   
558.500000	4.866886   
559.000000	4.904643   
559.500000	4.945810   
560.000000	4.688659   
560.500000	4.572295   
561.000000	4.737916   
561.500000	4.979113   
562.000000	4.889969   
562.500000	4.738227   
563.000000	4.707257   
563.500000	4.836590   
564.000000	4.781401   
564.500000	4.535727   
565.000000	4.347113   
565.500000	4.337242   
566.000000	4.483962   
566.500000	4.606984   
567.000000	4.631659   
567.500000	4.586303   
568.000000	4.556272   
568.500000	4.603606   
569.000000	4.563606   
569.500000	4.606022   
570.000000	4.540977   
570.500000	4.521371   
571.000000	4.373174   
571.500000	4.367780   
572.000000	4.379871   
572.500000	4.473704   
573.000000	4.510984   
573.500000	4.772659   
574.000000	5.042181   
574.500000	5.069181   
575.000000	4.810098   
575.500000	4.644681   
576.000000	4.597189   
576.500000	4.606621   
577.000000	4.491462   
577.500000	4.664681   
578.000000	4.905886   
578.500000	5.176749   
579.000000	5.079583   
579.500000	4.944257   
580.000000	4.709409   
580.500000	4.696954   
581.000000	4.732765   
581.500000	4.854348   
582.000000	5.059825   
582.500000	5.306310   
583.000000	5.369159   
583.500000	5.164954   
584.000000	4.936446   
584.500000	4.946030   
585.000000	5.031780   
585.500000	5.110803   
586.000000	5.219500   
586.500000	5.555439   
587.000000	5.690250   
587.500000	5.754810   
588.000000	5.699969   
588.500000	5.789704   
589.000000	5.828818   
589.500000	5.877598   
590.000000	5.777151   
590.500000	5.731075   
591.000000	5.739068   
591.500000	5.921083   
592.000000	6.083174   
592.500000	6.181204   
593.000000	6.293303   
593.500000	6.470590   
594.000000	6.567250   
594.500000	6.555825   
595.000000	6.526272   
595.500000	6.513992   
596.000000	6.558742   
596.500000	6.763431   
597.000000	7.102196   
597.500000	7.317356   
598.000000	7.190212   
598.500000	7.055000   
599.000000	7.021340   
599.500000	7.308000   
600.000000	7.479060   
600.500000	7.475242   
601.000000	7.270484   
601.500000	7.150439   
602.000000	7.183151   
602.500000	7.437272   
603.000000	7.756439   
603.500000	8.104143   
604.000000	8.387568   
604.500000	8.834712   
605.000000	9.229780   
605.500000	9.475257   
606.000000	9.293174   
606.500000	9.440492   
607.000000	9.515833   
607.500000	9.522121   
608.000000	9.343439   
608.500000	9.603265   
609.000000	10.014924  
609.500000	10.150909  
610.000000	9.933325   
610.500000	9.835015   
611.000000	9.841181   
611.500000	9.729295   
612.000000	9.578212   
612.500000	9.646454   
613.000000	9.761507   
613.500000	9.654159   
614.000000	9.308772   
614.500000	9.298575   
615.000000	9.469151   
615.500000	9.467227   
616.000000	9.173522   
616.500000	8.844598   
617.000000	8.887242   
617.500000	9.187984   
618.000000	9.402151   
618.500000	9.538553   
619.000000	9.705303   
619.500000	10.150045  
620.000000	10.650613  
620.500000	11.005659  
621.000000	11.098659  
621.500000	11.404068  
622.000000	11.552909  
622.500000	11.669318  
623.000000	11.717984  
623.500000	11.753151  
624.000000	11.820204  
624.500000	12.139204  
625.000000	12.763613  
625.500000	13.503295  
626.000000	13.846795  
626.500000	14.116462  
627.000000	14.497780  
627.500000	14.934159  
628.000000	15.051257  
628.500000	15.428878  
629.000000	16.021500  
629.500000	16.938098  
630.000000	17.514462  
630.500000	18.025121  
631.000000	18.550818  
631.500000	19.373901  
632.000000	20.014901  
632.500000	20.637000  
633.000000	21.239522  
633.500000	21.901621  
634.000000	22.648416  
634.500000	23.394053  
635.000000	24.371696  
635.500000	25.010636  
636.000000	25.346371  
636.500000	25.665045  
637.000000	26.634416  
637.500000	27.636643  
638.000000	28.479909  
638.500000	29.171795  
639.000000	30.046022  
639.500000	31.315424  
640.000000	32.442628  
640.500000	33.341515  
641.000000	33.786598  
641.500000	34.758348  
642.000000	36.801621  
642.500000	38.656689  
643.000000	39.337848  
643.500000	39.528727  
644.000000	41.023931  
644.500000	42.936325  
645.000000	44.074416  
645.500000	44.161045  
646.000000	44.891939  
646.500000	46.748060  
647.000000	48.957924  
647.500000	51.018863  
648.000000	52.630954  
648.500000	53.650590  
649.000000	54.621825  
649.500000	56.632848  
650.000000	59.751234  
650.500000	62.975386  
651.000000	64.890469  
651.500000	65.956166  
652.000000	66.869969  
652.500000	68.394340  
653.000000	69.980212  
653.500000	72.009310  
654.000000	74.234280  
654.500000	77.249219  
655.000000	80.796151  
655.500000	84.133037  
656.000000	87.127462  
656.500000	89.782227  
657.000000	92.549416  
657.500000	94.756295  
658.000000	96.076848  
658.500000	97.335628  
659.000000	99.794295  
659.500000	103.157303 
660.000000	106.093022 
660.500000	107.892310 
661.000000	109.333174 
661.500000	111.690840 
662.000000	114.939106 
662.500000	118.203060 
663.000000	120.445386 
663.500000	122.343863 
664.000000	124.928022 
664.500000	128.572977 
665.000000	132.489424 
665.500000	135.709977 
666.000000	138.568393 
666.500000	141.407606 
667.000000	145.559575 
667.500000	149.319287 
668.000000	152.716295 
668.500000	153.760053 
669.000000	154.906196 
669.500000	156.903348 
670.000000	161.360712 
670.500000	166.529651 
671.000000	170.531787 
671.500000	172.392007 
672.000000	173.380303 
672.500000	176.086780 
673.000000	180.370128 
673.500000	184.658393 
674.000000	186.520022 
674.500000	186.621227 
675.000000	188.237310 
675.500000	192.676537 
676.000000	197.617401 
676.500000	200.566227 
677.000000	202.880431 
677.500000	205.415787 
678.000000	208.182909 
678.500000	210.825340 
679.000000	213.810371 
679.500000	216.529257 
680.000000	217.906386 
680.500000	217.044719 
681.000000	217.072143 
681.500000	219.444083 
682.000000	223.964386 
682.500000	227.566803 
683.000000	228.915371 
683.500000	229.530856 
684.000000	231.410113 
684.500000	233.485704 
685.000000	234.557651 
685.500000	235.628083 
686.000000	237.145606 
686.500000	239.869750 
687.000000	241.549083 
687.500000	241.109393 
688.000000	238.750204 
688.500000	237.584128 
689.000000	237.465371 
689.500000	237.565734 
690.000000	236.793151 
690.500000	236.409159 
691.000000	236.781424 
691.500000	236.717848 
692.000000	235.540303 
692.500000	233.006219 
693.000000	230.749325 
693.500000	228.241121 
694.000000	225.857431 
694.500000	222.711318 
695.000000	220.666984 
695.500000	218.513643 
696.000000	216.304250 
696.500000	212.849280 
697.000000	209.903159 
697.500000	206.046818 
698.000000	201.883901 
698.500000	197.259848 
699.000000	193.731257 
699.500000	190.661659 
700.000000	187.644280 
700.500000	184.028287 
701.000000	179.224825 
701.500000	174.469318 
702.000000	170.331030 
702.500000	167.353189 
703.000000	164.266469 
703.500000	161.141803 
704.000000	157.263712 
704.500000	153.039303 
705.000000	148.814280 
705.500000	145.032984 
706.000000	141.199128 
706.500000	137.337833 
707.000000	133.119257 
707.500000	129.533159 
708.000000	125.758363 
708.500000	123.008704 
709.000000	120.236772 
709.500000	118.212121 
710.000000	115.389234 
710.500000	113.339143 
711.000000	110.528242 
711.500000	107.302946 
712.000000	103.129143 
712.500000	99.883863  
713.000000	97.345151  
713.500000	95.067871  
714.000000	92.782454  
714.500000	90.904946  
715.000000	88.835174  
715.500000	86.222015  
716.000000	82.929439  
716.500000	80.142371  
717.000000	78.399583  
717.500000	77.248090  
718.000000	75.434000  
718.500000	72.590954  
719.000000	69.524143  
719.500000	67.352515  
720.000000	66.031643  
720.500000	64.361068  
721.000000	62.765060  
721.500000	60.639727  
722.000000	58.580325  
722.500000	56.505590  
723.000000	55.195409  
723.500000	54.121477  
724.000000	53.020553  
724.500000	51.596462  
725.000000	50.071416  
725.500000	48.717780  
726.000000	47.478068  
726.500000	46.354530  
727.000000	44.854068  
727.500000	43.060795  
728.000000	41.579848  
728.500000	40.214446  
729.000000	38.644727  
729.500000	36.756037  
730.000000	35.829424  
730.500000	35.269727  
731.000000	34.917795  
731.500000	34.185409  
732.000000	33.837977  
732.500000	33.225219  
733.000000	32.007780  
733.500000	30.522659  
734.000000	29.399143  
734.500000	28.757431  
735.000000	28.091969  
735.500000	27.358590  
736.000000	26.703962  
736.500000	26.296439  
737.000000	25.935909  
737.500000	25.473598  
738.000000	25.201424  
738.500000	24.535015  
739.000000	23.628189  
739.500000	22.337113  
740.000000	21.420212  
740.500000	20.853916  
741.000000	20.678424  
741.500000	20.369848  
742.000000	19.945325  
742.500000	19.175772  
743.000000	18.512590  
743.500000	18.191795  
744.000000	18.022886  
744.500000	17.620007  
745.000000	17.212416  
745.500000	16.910272  
746.000000	16.657106  
746.500000	16.383810  
747.000000	15.955227  
747.500000	15.703621  
748.000000	15.395136  
748.500000	14.968090  
749.000000	14.294515  
749.500000	13.712575  
750.000000	13.325734  
750.500000	13.256962  
751.000000	13.412924  
751.500000	13.117446  
752.000000	12.636681  
752.500000	11.943553  
753.000000	11.814280  
753.500000	11.837166  
754.000000	11.954098  
754.500000	11.737560  
755.000000	11.503545  
755.500000	11.281386  
756.000000	11.176787  
756.500000	11.128901  
757.000000	10.880356  
757.500000	10.553568  
758.000000	10.167750  
758.500000	9.821916   
759.000000	9.690265   
759.500000	9.668522   
760.000000	9.912946   
760.500000	9.880636   
761.000000	9.756030   
761.500000	9.310750   
762.000000	9.014727   
762.500000	8.848166   
763.000000	8.753984   
763.500000	8.515484   
764.000000	8.126136   
764.500000	7.859037   
765.000000	7.692719   
765.500000	7.581189   
766.000000	7.452575   
766.500000	7.716772   
767.000000	8.026068   
767.500000	8.100636   
768.000000	7.729568   
768.500000	7.423848   
769.000000	7.160651   
769.500000	7.109242   
770.000000	6.953871   
770.500000	6.680310   
771.000000	6.161143   
771.500000	5.638022   
772.000000	5.637318   
772.500000	5.948750   
773.000000	6.236015   
773.500000	6.083590   
774.000000	5.909674   
774.500000	5.843560   
775.000000	5.991750   
775.500000	5.949378   
776.000000	5.607212   
776.500000	5.182507   
777.000000	5.062969   
777.500000	5.208560   
778.000000	5.277757   
778.500000	5.323780   
779.000000	5.247484   
779.500000	5.246856   
780.000000	5.104689   
780.500000	5.052901   
781.000000	4.936159   
781.500000	5.050590   
782.000000	5.173530   
782.500000	4.980000   
783.000000	4.450280   
783.500000	3.974803   
784.000000	4.072840   
784.500000	4.284871   
785.000000	4.500030   
785.500000	4.457128   
786.000000	4.195674   
786.500000	3.838060   
787.000000	3.780575   
787.500000	4.206931   
788.000000	4.416643   
788.500000	4.347553   
789.000000	3.937348   
789.500000	3.793734   
790.000000	3.622719   
790.500000	3.588643   
791.000000	3.460022   
791.500000	3.499515   
792.000000	3.685545   
792.500000	3.996037   
793.000000	3.990575   
793.500000	3.695022   
794.000000	3.537371   
794.500000	3.664977   
795.000000	3.821780   
795.500000	3.619037   
796.000000	3.359015   
796.500000	3.122962   
797.000000	3.092416   
797.500000	3.112924   
798.000000	3.278113   
798.500000	3.266477   
799.000000	3.292681   
799.500000	3.287424   
800.000000	3.393750   
800.500000	3.263303   
801.000000	3.102613   
801.500000	3.014931   
802.000000	3.137878   
802.500000	3.223318   
803.000000	3.262856   
803.500000	3.153060   
804.000000	2.921030   
804.500000	2.889727   
805.000000	3.031674   
805.500000	3.247234   
806.000000	3.169250   
806.500000	2.834409   
807.000000	2.576477   
807.500000	2.522840   
808.000000	2.696439   
808.500000	2.830310   
809.000000	2.890810   
809.500000	2.789348   
810.000000	2.782159   
810.500000	2.796159   
811.000000	2.807000   
811.500000	2.734590   
812.000000	2.600742   
812.500000	2.551893   
813.000000	2.537916   
813.500000	2.584795   
814.000000	2.678090   
814.500000	2.816318   
815.000000	2.907136   
815.500000	2.814939   
816.000000	2.575568   
816.500000	2.419515   
817.000000	2.520151   
817.500000	2.707409   
818.000000	2.792143   
818.500000	2.733280   
819.000000	2.716053   
819.500000	2.843734   
820.000000	3.006628   
820.500000	3.268545   
821.000000	3.444734   
821.500000	3.554643   
822.000000	3.550462   
822.500000	3.421371   
823.000000	3.334727   
823.500000	3.260500   
824.000000	3.264765   
824.500000	3.247113   
825.000000	3.306477   
825.500000	3.231469   
826.000000	3.171674   
826.500000	2.989545   
827.000000	2.903037   
827.500000	2.830401   
828.000000	2.765280   
828.500000	2.625250   
829.000000	2.560227   
829.500000	2.526484   
830.000000	2.637007   
830.500000	2.591106   
831.000000	2.498007   
831.500000	2.387871   
832.000000	2.294856   
832.500000	2.104924   
833.000000	1.932598   
833.500000	2.009174   
834.000000	2.225575   
834.500000	2.352666   
835.000000	2.059310   
835.500000	1.658090   
836.000000	1.375401   
836.500000	1.352469   
837.000000	1.388068   
837.500000	1.312378   
838.000000	1.284666   
838.500000	1.195022   
839.000000	1.129454   
839.500000	0.989719   
840.000000	1.054128   
840.500000	1.098553   
841.000000	1.102303   
841.500000	0.985295   
842.000000	0.858696   
842.500000	0.808098   
843.000000	0.811575   
843.500000	0.900015   
844.000000	0.989537   
844.500000	0.887113   
845.000000	0.702522   
845.500000	0.577613   
846.000000	0.718537   
846.500000	0.879181   
847.000000	0.854242   
847.500000	0.605454   
848.000000	0.517106   
848.500000	0.653568   
849.000000	0.784280   
849.500000	0.791159   
850.000000	0.773265   
850.500000	0.776681   
851.000000	0.747643   
851.500000	0.643818   
852.000000	0.629295   
852.500000	0.562053   
853.000000	0.480227   
853.500000	0.316969   
854.000000	0.409219   
854.500000	0.438939   
855.000000	0.396886   
855.500000	0.165871   
856.000000	0.105613   
856.500000	0.114803   
857.000000	0.215250   
857.500000	0.206295   
858.000000	0.200143   
858.500000	0.157090   
859.000000	0.081954   
859.500000	0.022189   
860.000000	0.045757   
860.500000	0.193522   
861.000000	0.314750   
861.500000	0.312007   
862.000000	0.186931   
862.500000	0.118030   
863.000000	0.127871   
863.500000	0.144689   
864.000000	0.043303   
864.500000	-0.020969  
865.000000	-0.030416  
865.500000	-0.038469  
866.000000	-0.041371  
866.500000	-0.026189  
867.000000	0.136439   
867.500000	0.289356   
868.000000	0.330818   
868.500000	0.156643   
869.000000	0.034045   
869.500000	-0.032553  
870.000000	0.083621   
870.500000	0.173750   
871.000000	0.133666   
871.500000	-0.034295  
872.000000	-0.208181  
872.500000	-0.125613  
873.000000	0.050439   
873.500000	0.089325   
874.000000	-0.106613  
874.500000	-0.172674  
875.000000	-0.160060  
875.500000	-0.109363  
876.000000	-0.139151  
876.500000	-0.094606  
877.000000	-0.018719  
877.500000	0.021083   
878.000000	0.037719   
878.500000	0.047303   
879.000000	0.067196   
879.500000	0.003037   
880.000000	-0.006280  
880.500000	0.008893   
881.000000	0.134484   
881.500000	0.236318   
882.000000	0.266893   
882.500000	0.156083   
883.000000	0.028871   
883.500000	-0.025113  
884.000000	-0.070878  
884.500000	-0.157545  
885.000000	-0.149765  
885.500000	0.039719   
886.000000	0.220909   
886.500000	0.128893   
887.000000	-0.051825  
887.500000	-0.029333  
888.000000	0.222439   
888.500000	0.270818   
889.000000	0.073992   
889.500000	-0.157000  
890.000000	-0.155227  
890.500000	-0.157507  
891.000000	-0.192568  
891.500000	-0.266022  
892.000000	-0.199613  
892.500000	-0.107439  
893.000000	-0.071871  
893.500000	-0.049128  
894.000000	-0.047962  
894.500000	0.016954   
895.000000	0.009212   
895.500000	-0.003977  
896.000000	-0.112568  
896.500000	-0.138439  
897.000000	-0.073825  
897.500000	0.052295   
898.000000	0.129272   
898.500000	0.032007   
899.000000	-0.091545  
899.500000	-0.115916  
900.000000	0.159818   
900.500000	0.664000   

