PE FL                   SPECTRUM    ASCII       PEDS        1.60        
  -1
S07P.SP
24/04/05
12:16:37.00
24/04/05
12:18:00.00
Jan

900.500000
1









LS55
455.00
5.00
5.00
SCAN
1
20
100
100
0
400
0
1
0
1
5
ON
900 455 
1 0 0
#HDR
-1
-1
#GR
NM

0.00002384185791015625
0.0
460.000000
0.500000
882
8
130.068878
-0.602515
#DATA
460.000000	0.547999   
460.500000	0.124378   
461.000000	-0.049674  
461.500000	-0.044250  
462.000000	0.058780   
462.500000	0.030053   
463.000000	0.047969   
463.500000	-0.052416  
464.000000	-0.088159  
464.500000	-0.089151  
465.000000	0.024136   
465.500000	0.164401   
466.000000	0.259227   
466.500000	0.250136   
467.000000	0.160462   
467.500000	-0.025234  
468.000000	-0.223636  
468.500000	-0.226871  
469.000000	-0.079621  
469.500000	0.096727   
470.000000	0.023840   
470.500000	-0.255287  
471.000000	-0.504984  
471.500000	-0.494075  
472.000000	-0.414848  
472.500000	-0.329469  
473.000000	-0.268219  
473.500000	-0.187636  
474.000000	-0.152901  
474.500000	-0.186833  
475.000000	-0.231787  
475.500000	-0.182015  
476.000000	-0.150757  
476.500000	-0.129128  
477.000000	-0.037265  
477.500000	0.117356   
478.000000	0.241272   
478.500000	0.256590   
479.000000	0.141431   
479.500000	0.101265   
480.000000	0.087507   
480.500000	-0.044825  
481.000000	-0.213583  
481.500000	-0.113742  
482.000000	0.114931   
482.500000	0.215825   
483.000000	-0.000750  
483.500000	-0.198151  
484.000000	-0.161204  
484.500000	-0.085007  
485.000000	-0.084325  
485.500000	-0.115371  
486.000000	-0.093863  
486.500000	0.007712   
487.000000	0.104128   
487.500000	0.095984   
488.000000	0.009303   
488.500000	-0.111310  
489.000000	-0.248371  
489.500000	-0.370287  
490.000000	-0.442984  
490.500000	-0.401992  
491.000000	-0.275068  
491.500000	-0.181212  
492.000000	-0.100325  
492.500000	0.022568   
493.000000	0.190007   
493.500000	0.240689   
494.000000	0.134204   
494.500000	-0.083712  
495.000000	-0.222113  
495.500000	-0.134818  
496.000000	0.076962   
496.500000	0.268022   
497.000000	0.237757   
497.500000	0.160696   
498.000000	0.080325   
498.500000	0.296500   
499.000000	0.454515   
499.500000	0.572833   
500.000000	0.383416   
500.500000	0.284249   
501.000000	0.296484   
501.500000	0.448037   
502.000000	0.471030   
502.500000	0.450007   
503.000000	0.445712   
503.500000	0.538378   
504.000000	0.650128   
504.500000	0.795189   
505.000000	0.850356   
505.500000	0.812848   
506.000000	0.657257   
506.500000	0.662477   
507.000000	0.785083   
507.500000	0.906598   
508.000000	0.840833   
508.500000	0.678659   
509.000000	0.663901   
509.500000	0.832204   
510.000000	1.121416   
510.500000	1.128795   
511.000000	0.994651   
511.500000	0.762931   
512.000000	0.817553   
512.500000	0.802666   
513.000000	0.778651   
513.500000	0.631257   
514.000000	0.815939   
514.500000	1.067954   
515.000000	1.320121   
515.500000	1.354431   
516.000000	1.431068   
516.500000	1.538484   
517.000000	1.654886   
517.500000	1.571712   
518.000000	1.421636   
518.500000	1.533689   
519.000000	1.857977   
519.500000	2.051704   
520.000000	1.792113   
520.500000	1.496083   
521.000000	1.481090   
521.500000	1.818045   
522.000000	1.957946   
522.500000	1.959583   
523.000000	1.792560   
523.500000	1.810356   
524.000000	1.851939   
524.500000	2.089181   
525.000000	2.191901   
525.500000	2.268234   
526.000000	2.100333   
526.500000	2.100363   
527.000000	1.991371   
527.500000	1.999348   
528.000000	1.861939   
528.500000	2.019962   
529.000000	2.174750   
529.500000	2.407393   
530.000000	2.444530   
530.500000	2.423977   
531.000000	2.182931   
531.500000	1.912121   
532.000000	1.913659   
532.500000	2.217931   
533.000000	2.521340   
533.500000	2.611833   
534.000000	2.552363   
534.500000	2.492068   
535.000000	2.432318   
535.500000	2.428310   
536.000000	2.502136   
536.500000	2.571454   
537.000000	2.550189   
537.500000	2.550083   
538.000000	2.743227   
538.500000	2.822242   
539.000000	2.716696   
539.500000	2.512037   
540.000000	2.598901   
540.500000	2.911159   
541.000000	3.183007   
541.500000	3.341674   
542.000000	3.536909   
542.500000	3.809924   
543.000000	4.050651   
543.500000	4.209075   
544.000000	4.365856   
544.500000	4.589060   
545.000000	4.775242   
545.500000	4.769803   
546.000000	4.756068   
546.500000	4.827136   
547.000000	4.985787   
547.500000	5.042818   
548.000000	4.987977   
548.500000	4.948674   
549.000000	5.117689   
549.500000	5.499712   
550.000000	5.891189   
550.500000	6.039227   
551.000000	6.179750   
551.500000	6.408113   
552.000000	6.724598   
552.500000	6.867598   
553.000000	6.916439   
553.500000	6.874363   
554.000000	6.908856   
554.500000	7.021909   
555.000000	7.276719   
555.500000	7.397628   
556.000000	7.521386   
556.500000	7.405257   
557.000000	7.335780   
557.500000	7.028272   
558.000000	7.005280   
558.500000	7.008643   
559.000000	7.208303   
559.500000	7.264590   
560.000000	7.442704   
560.500000	7.743348   
561.000000	8.095143   
561.500000	8.365954   
562.000000	8.352499   
562.500000	8.330022   
563.000000	8.303159   
563.500000	8.336022   
564.000000	8.172787   
564.500000	8.181037   
565.000000	8.377121   
565.500000	8.590924   
566.000000	8.436674   
566.500000	8.192537   
567.000000	8.075409   
567.500000	8.214106   
568.000000	8.301454   
568.500000	8.089590   
569.000000	7.738742   
569.500000	7.511409   
570.000000	7.720416   
570.500000	8.179219   
571.000000	8.623840   
571.500000	8.870287   
572.000000	9.100537   
572.500000	9.067015   
573.000000	8.943469   
573.500000	8.903598   
574.000000	9.032674   
574.500000	9.329454   
575.000000	9.782712   
575.500000	10.161371  
576.000000	10.250871  
576.500000	10.111174  
577.000000	9.862477   
577.500000	9.783901   
578.000000	9.916583   
578.500000	10.239666  
579.000000	10.487022  
579.500000	10.541530  
580.000000	10.574045  
580.500000	10.904212  
581.000000	11.135340  
581.500000	11.244295  
582.000000	11.092977  
582.500000	11.284666  
583.000000	11.624856  
583.500000	12.239007  
584.000000	12.590598  
584.500000	12.839719  
585.000000	12.793765  
585.500000	12.748439  
586.000000	12.782909  
586.500000	13.128666  
587.000000	13.666045  
587.500000	14.042530  
588.000000	14.110537  
588.500000	14.146522  
589.000000	14.294310  
589.500000	14.543333  
590.000000	14.818439  
590.500000	14.959272  
591.000000	15.264931  
591.500000	15.656931  
592.000000	16.006310  
592.500000	16.105166  
593.000000	16.311015  
593.500000	16.661500  
594.000000	17.410234  
594.500000	17.769689  
595.000000	17.949734  
595.500000	17.895416  
596.000000	18.092113  
596.500000	18.519825  
597.000000	19.232045  
597.500000	19.757651  
598.000000	20.193469  
598.500000	20.569378  
599.000000	20.930825  
599.500000	21.335340  
600.000000	21.588325  
600.500000	21.933409  
601.000000	22.331022  
601.500000	22.738227  
602.000000	23.196825  
602.500000	24.093492  
603.000000	24.814931  
603.500000	25.195500  
604.000000	25.005022  
604.500000	25.030992  
605.000000	25.171537  
605.500000	25.488636  
606.000000	25.927363  
606.500000	26.588250  
607.000000	27.009787  
607.500000	26.945712  
608.000000	26.968068  
608.500000	27.206250  
609.000000	27.598212  
609.500000	27.254060  
610.000000	26.553272  
610.500000	26.101553  
611.000000	26.351537  
611.500000	26.586484  
612.000000	26.409825  
612.500000	26.054931  
613.000000	25.759666  
613.500000	25.143651  
614.000000	24.138666  
614.500000	23.463825  
615.000000	23.262469  
615.500000	23.142151  
616.000000	22.507469  
616.500000	21.908106  
617.000000	21.925825  
617.500000	22.650719  
618.000000	23.188924  
618.500000	23.625454  
619.000000	23.623992  
619.500000	23.352325  
620.000000	22.771909  
620.500000	22.977416  
621.000000	24.045924  
621.500000	25.468484  
622.000000	25.906257  
622.500000	26.034037  
623.000000	26.101310  
623.500000	26.747181  
624.000000	27.305098  
624.500000	27.719060  
625.000000	27.654181  
625.500000	27.762242  
626.000000	28.463537  
626.500000	29.283553  
627.000000	29.481424  
627.500000	29.190454  
628.000000	29.836878  
628.500000	31.489606  
629.000000	33.056106  
629.500000	33.476356  
630.000000	33.485174  
630.500000	33.932159  
631.000000	34.850037  
631.500000	35.964340  
632.000000	36.845606  
632.500000	37.829363  
633.000000	38.891833  
633.500000	40.156348  
634.000000	40.928083  
634.500000	41.676871  
635.000000	42.151840  
635.500000	42.883734  
636.000000	42.924696  
636.500000	43.618303  
637.000000	45.083462  
637.500000	47.161704  
638.000000	48.375962  
638.500000	48.827780  
639.000000	49.049204  
639.500000	49.978287  
640.000000	51.503371  
640.500000	53.377363  
641.000000	54.977196  
641.500000	56.031265  
642.000000	57.278924  
642.500000	58.707446  
643.000000	59.847681  
643.500000	60.551143  
644.000000	61.525295  
644.500000	62.750060  
645.000000	63.884303  
645.500000	64.780431  
646.000000	65.956712  
646.500000	67.729628  
647.000000	69.382704  
647.500000	71.013977  
648.000000	72.085121  
648.500000	73.230030  
649.000000	74.044446  
649.500000	75.197121  
650.000000	75.975295  
650.500000	77.937946  
651.000000	80.493037  
651.500000	83.776772  
652.000000	85.531946  
652.500000	86.755977  
653.000000	87.591113  
653.500000	89.367090  
654.000000	90.499295  
654.500000	91.695416  
655.000000	92.894007  
655.500000	94.863022  
656.000000	97.221772  
656.500000	98.826310  
657.000000	99.810106  
657.500000	100.493977 
658.000000	102.220030 
658.500000	103.266015 
659.000000	104.304174 
659.500000	105.353295 
660.000000	108.057462 
660.500000	109.901840 
661.000000	110.906598 
661.500000	111.299924 
662.000000	113.127143 
662.500000	114.377651 
663.000000	115.104424 
663.500000	115.579712 
664.000000	117.950272 
664.500000	120.122863 
665.000000	121.457651 
665.500000	121.375659 
666.000000	122.309000 
666.500000	123.752075 
667.000000	125.288234 
667.500000	125.486454 
668.000000	125.524356 
668.500000	126.144712 
669.000000	127.378757 
669.500000	128.548204 
670.000000	128.777848 
670.500000	128.903727 
671.000000	128.693318 
671.500000	128.893909 
672.000000	128.731007 
672.500000	129.269113 
673.000000	129.310924 
673.500000	129.850060 
674.000000	129.931962 
674.500000	130.068878 
675.000000	129.194992 
675.500000	128.890719 
676.000000	129.259280 
676.500000	129.940666 
677.000000	129.205772 
677.500000	127.920545 
678.000000	127.410340 
678.500000	127.551189 
679.000000	127.408840 
679.500000	126.856871 
680.000000	126.412636 
680.500000	125.949704 
681.000000	124.516613 
681.500000	122.783984 
682.000000	120.978113 
682.500000	120.689787 
683.000000	120.088575 
683.500000	119.102265 
684.000000	116.561090 
684.500000	114.467000 
685.000000	112.664174 
685.500000	111.597507 
686.000000	110.570833 
686.500000	108.947636 
687.000000	106.706454 
687.500000	104.173348 
688.000000	102.808901 
688.500000	101.489265 
689.000000	99.557318  
689.500000	96.816174  
690.000000	94.941712  
690.500000	93.798643  
691.000000	92.587310  
691.500000	90.517689  
692.000000	87.798446  
692.500000	85.171696  
693.000000	83.191189  
693.500000	81.613810  
694.000000	80.086704  
694.500000	77.725757  
695.000000	75.636166  
695.500000	74.085840  
696.000000	73.158598  
696.500000	71.533598  
697.000000	69.963386  
697.500000	68.400151  
698.000000	66.904227  
698.500000	64.628439  
699.000000	62.367227  
699.500000	60.513454  
700.000000	59.045212  
700.500000	57.480106  
701.000000	56.024568  
701.500000	54.325848  
702.000000	52.698553  
702.500000	51.242704  
703.000000	49.997545  
703.500000	48.793606  
704.000000	47.483795  
704.500000	46.271825  
705.000000	44.936143  
705.500000	43.761318  
706.000000	42.194469  
706.500000	41.284992  
707.000000	40.449659  
707.500000	39.832303  
708.000000	38.408825  
708.500000	36.822515  
709.000000	35.692750  
709.500000	35.166030  
710.000000	34.236719  
710.500000	33.099643  
711.000000	32.267280  
711.500000	31.756863  
712.000000	31.089704  
712.500000	30.187545  
713.000000	29.412734  
713.500000	28.989401  
714.000000	28.489181  
714.500000	28.008659  
715.000000	27.339250  
715.500000	26.506628  
716.000000	25.780242  
716.500000	25.228825  
717.000000	24.702954  
717.500000	24.229106  
718.000000	23.961340  
718.500000	23.696810  
719.000000	23.276553  
719.500000	22.527469  
720.000000	21.682878  
720.500000	20.603537  
721.000000	19.696530  
721.500000	19.066356  
722.000000	19.183818  
722.500000	19.284363  
723.000000	19.356553  
723.500000	18.878863  
724.000000	18.270742  
724.500000	17.708143  
725.000000	17.421159  
725.500000	16.818560  
726.000000	15.943272  
726.500000	15.337795  
727.000000	15.326969  
727.500000	15.572545  
728.000000	15.367666  
728.500000	14.975924  
729.000000	14.744727  
729.500000	14.703795  
730.000000	14.675704  
730.500000	14.812022  
731.000000	14.591962  
731.500000	14.029424  
732.000000	13.342136  
732.500000	12.809439  
733.000000	12.493568  
733.500000	12.175325  
734.000000	12.028704  
734.500000	11.712227  
735.000000	11.422734  
735.500000	11.073318  
736.000000	11.415287  
736.500000	11.650219  
737.000000	11.674462  
737.500000	11.258363  
738.000000	11.054295  
738.500000	10.835977  
739.000000	10.729659  
739.500000	10.428848  
740.000000	10.403833  
740.500000	10.500356  
741.000000	10.584265  
741.500000	10.157931  
742.000000	9.518015   
742.500000	9.099643   
743.000000	9.290787   
743.500000	9.611856   
744.000000	9.749492   
744.500000	9.538295   
745.000000	9.386704   
745.500000	9.115098   
746.000000	8.989166   
746.500000	8.766916   
747.000000	8.582439   
747.500000	8.201530   
748.000000	8.022954   
748.500000	7.931121   
749.000000	8.019409   
749.500000	7.950159   
750.000000	7.915840   
750.500000	7.949159   
751.000000	8.014871   
751.500000	7.982537   
752.000000	8.049515   
752.500000	7.978674   
753.000000	7.761909   
753.500000	7.576772   
754.000000	7.618878   
754.500000	7.968143   
755.000000	7.989431   
755.500000	7.731151   
756.000000	7.237469   
756.500000	6.875424   
757.000000	6.626886   
757.500000	6.719916   
758.000000	6.684295   
758.500000	6.521613   
759.000000	6.419992   
759.500000	6.594734   
760.000000	6.909772   
760.500000	6.920530   
761.000000	6.648704   
761.500000	6.342295   
762.000000	6.229727   
762.500000	6.083356   
763.000000	6.157037   
763.500000	6.251499   
764.000000	6.447803   
764.500000	6.402795   
765.000000	6.265143   
765.500000	5.947863   
766.000000	5.575931   
766.500000	5.284492   
767.000000	5.246151   
767.500000	5.537143   
768.000000	5.790863   
768.500000	5.822219   
769.000000	5.534613   
769.500000	5.123575   
770.000000	4.941401   
770.500000	4.784765   
771.000000	4.652681   
771.500000	4.480204   
772.000000	4.626833   
772.500000	4.690916   
773.000000	4.801901   
773.500000	4.782174   
774.000000	4.863825   
774.500000	4.660734   
775.000000	4.490045   
775.500000	4.379272   
776.000000	4.525439   
776.500000	4.458431   
777.000000	4.509583   
777.500000	4.515916   
778.000000	4.489030   
778.500000	4.290681   
779.000000	4.201590   
779.500000	4.226431   
780.000000	4.212151   
780.500000	4.157045   
781.000000	4.124212   
781.500000	4.196424   
782.000000	4.288674   
782.500000	4.367954   
783.000000	4.260643   
783.500000	3.952530   
784.000000	3.789666   
784.500000	3.740333   
785.000000	3.681000   
785.500000	3.538886   
786.000000	3.541386   
786.500000	3.550219   
787.000000	3.569969   
787.500000	3.460537   
788.000000	3.481128   
788.500000	3.607113   
789.000000	3.788984   
789.500000	3.895356   
790.000000	3.932984   
790.500000	3.811356   
791.000000	3.572939   
791.500000	3.324265   
792.000000	3.177946   
792.500000	3.268272   
793.000000	3.370106   
793.500000	3.394037   
794.000000	3.278848   
794.500000	3.077174   
795.000000	2.825166   
795.500000	2.754659   
796.000000	2.892098   
796.500000	3.072053   
797.000000	3.127780   
797.500000	2.937590   
798.000000	2.867363   
798.500000	2.865136   
799.000000	3.040143   
799.500000	3.101454   
800.000000	3.223446   
800.500000	3.139575   
801.000000	3.026272   
801.500000	2.865795   
802.000000	2.868621   
802.500000	2.781643   
803.000000	2.695818   
803.500000	2.687537   
804.000000	2.819818   
804.500000	2.891060   
805.000000	2.859628   
805.500000	2.757378   
806.000000	2.726765   
806.500000	2.715924   
807.000000	2.762098   
807.500000	2.824909   
808.000000	2.783446   
808.500000	2.623712   
809.000000	2.548666   
809.500000	2.578242   
810.000000	2.734750   
810.500000	2.742212   
811.000000	2.700931   
811.500000	2.604621   
812.000000	2.670500   
812.500000	2.729962   
813.000000	2.749090   
813.500000	2.639840   
814.000000	2.590765   
814.500000	2.649295   
815.000000	2.770757   
815.500000	2.887613   
816.000000	2.813439   
816.500000	2.635378   
817.000000	2.525712   
817.500000	2.642719   
818.000000	2.814590   
818.500000	2.896462   
819.000000	2.835553   
819.500000	2.789030   
820.000000	2.719424   
820.500000	2.691742   
821.000000	2.713545   
821.500000	2.796090   
822.000000	2.912242   
822.500000	3.019174   
823.000000	3.070765   
823.500000	3.131643   
824.000000	3.177522   
824.500000	3.277348   
825.000000	3.363575   
825.500000	3.443227   
826.000000	3.261424   
826.500000	3.027075   
827.000000	2.828621   
827.500000	2.844325   
828.000000	2.759840   
828.500000	2.683272   
829.000000	2.613303   
829.500000	2.643204   
830.000000	2.560196   
830.500000	2.553568   
831.000000	2.512840   
831.500000	2.463393   
832.000000	2.056719   
832.500000	1.696856   
833.000000	1.566090   
833.500000	1.763446   
834.000000	1.905393   
834.500000	1.902363   
835.000000	1.835613   
835.500000	1.790575   
836.000000	1.808787   
836.500000	1.641712   
837.000000	1.457606   
837.500000	1.211992   
838.000000	1.208424   
838.500000	1.180659   
839.000000	1.129477   
839.500000	0.923234   
840.000000	0.869833   
840.500000	0.898795   
841.000000	0.997219   
841.500000	0.980265   
842.000000	0.943098   
842.500000	0.875969   
843.000000	0.891939   
843.500000	0.945439   
844.000000	0.914674   
844.500000	0.788242   
845.000000	0.662886   
845.500000	0.642568   
846.000000	0.680204   
846.500000	0.659310   
847.000000	0.589780   
847.500000	0.599856   
848.000000	0.623484   
848.500000	0.657757   
849.000000	0.627719   
849.500000	0.490924   
850.000000	0.240689   
850.500000	0.036090   
851.000000	-0.013909  
851.500000	0.168727   
852.000000	0.379818   
852.500000	0.502219   
853.000000	0.518257   
853.500000	0.455181   
854.000000	0.429515   
854.500000	0.347287   
855.000000	0.290007   
855.500000	0.216560   
856.000000	0.245636   
856.500000	0.142106   
857.000000	0.117113   
857.500000	0.083310   
858.000000	0.208265   
858.500000	0.148969   
859.000000	0.056810   
859.500000	-0.143015  
860.000000	-0.220901  
860.500000	-0.371825  
861.000000	-0.408424  
861.500000	-0.415030  
862.000000	-0.167984  
862.500000	0.021954   
863.000000	0.120477   
863.500000	-0.030795  
864.000000	-0.038015  
864.500000	0.000507   
865.000000	0.110515   
865.500000	0.038068   
866.000000	0.016303   
866.500000	-0.035090  
867.000000	-0.012037  
867.500000	0.038515   
868.000000	0.201507   
868.500000	0.319151   
869.000000	0.369083   
869.500000	0.375053   
870.000000	0.402621   
870.500000	0.359810   
871.000000	0.097727   
871.500000	-0.306909  
872.000000	-0.602515  
872.500000	-0.518727  
873.000000	-0.206863  
873.500000	-0.046363  
874.000000	-0.146416  
874.500000	-0.316196  
875.000000	-0.275219  
875.500000	-0.132000  
876.000000	0.050318   
876.500000	0.062446   
877.000000	0.060045   
877.500000	-0.055583  
878.000000	-0.077340  
878.500000	-0.084999  
879.000000	-0.058954  
879.500000	-0.110280  
880.000000	-0.156863  
880.500000	-0.158106  
881.000000	-0.051977  
881.500000	0.071924   
882.000000	0.086621   
882.500000	-0.002803  
883.000000	-0.101325  
883.500000	-0.165037  
884.000000	-0.093727  
884.500000	-0.029113  
885.000000	0.049696   
885.500000	0.013075   
886.000000	0.024946   
886.500000	-0.139454  
887.000000	-0.285446  
887.500000	-0.441500  
888.000000	-0.344196  
888.500000	-0.249439  
889.000000	-0.201500  
889.500000	-0.244007  
890.000000	-0.235575  
890.500000	-0.198689  
891.000000	-0.188257  
891.500000	-0.125659  
892.000000	-0.032833  
892.500000	-0.005734  
893.000000	-0.154151  
893.500000	-0.394704  
894.000000	-0.448189  
894.500000	-0.309545  
895.000000	-0.147939  
895.500000	-0.177583  
896.000000	-0.182750  
896.500000	-0.229159  
897.000000	-0.201931  
897.500000	-0.203181  
898.000000	-0.127159  
898.500000	-0.107681  
899.000000	-0.083151  
899.500000	-0.108962  
900.000000	-0.149863  
900.500000	-0.302999  

