PE FL                   SPECTRUM    ASCII       PEDS        1.60        
  -1
S18P.SP
24/04/05
12:49:11.00
24/04/05
12:50:34.00
Jan

900.500000
1









LS55
455.00
5.00
5.00
SCAN
1
20
100
100
0
400
0
1
0
1
5
ON
900 455 
1 0 0
#HDR
-1
-1
#GR
NM

0.00002384185791015625
0.0
460.000000
0.500000
882
8
234.370568
-0.282121
#DATA
460.000000	-0.122000  
460.500000	-0.069719  
461.000000	-0.092681  
461.500000	-0.198090  
462.000000	-0.281901  
462.500000	-0.131446  
463.000000	-0.019378  
463.500000	0.007992   
464.000000	-0.069348  
464.500000	-0.022553  
465.000000	0.004575   
465.500000	-0.001772  
466.000000	-0.114992  
466.500000	-0.060909  
467.000000	0.063712   
467.500000	0.170734   
468.000000	0.058568   
468.500000	-0.092712  
469.000000	-0.187939  
469.500000	-0.138113  
470.000000	-0.126863  
470.500000	-0.047484  
471.000000	0.068219   
471.500000	0.201007   
472.000000	0.162727   
472.500000	0.089439   
473.000000	-0.059098  
473.500000	-0.060901  
474.000000	0.025181   
474.500000	0.146280   
475.000000	0.015462   
475.500000	-0.139416  
476.000000	-0.210750  
476.500000	-0.056446  
477.000000	0.069825   
477.500000	0.169484   
478.000000	0.102212   
478.500000	-0.000954  
479.000000	-0.078318  
479.500000	0.027742   
480.000000	0.112113   
480.500000	-0.008053  
481.000000	-0.163424  
481.500000	-0.232810  
482.000000	-0.101636  
482.500000	-0.017780  
483.000000	0.038393   
483.500000	0.020378   
484.000000	-0.014545  
484.500000	-0.062772  
485.000000	-0.100787  
485.500000	-0.071878  
486.000000	-0.097818  
486.500000	-0.021856  
487.000000	0.002560   
487.500000	0.069287   
488.000000	0.063530   
488.500000	0.142530   
489.000000	0.161969   
489.500000	0.162143   
490.000000	0.092863   
490.500000	0.206462   
491.000000	0.302545   
491.500000	0.325537   
492.000000	0.271318   
492.500000	0.295992   
493.000000	0.173484   
493.500000	-0.001439  
494.000000	-0.087984  
494.500000	0.165636   
495.000000	0.493000   
495.500000	0.630477   
496.000000	0.526159   
496.500000	0.420772   
497.000000	0.364946   
497.500000	0.440151   
498.000000	0.566553   
498.500000	0.711621   
499.000000	0.739583   
499.500000	0.634484   
500.000000	0.557704   
500.500000	0.625969   
501.000000	0.723674   
501.500000	0.723325   
502.000000	0.652416   
502.500000	0.705030   
503.000000	0.838848   
503.500000	0.936606   
504.000000	0.848265   
504.500000	0.758545   
505.000000	0.801075   
505.500000	1.115265   
506.000000	1.403818   
506.500000	1.555848   
507.000000	1.628143   
507.500000	1.725416   
508.000000	1.878348   
508.500000	1.938931   
509.000000	1.798159   
509.500000	1.620181   
510.000000	1.652560   
510.500000	1.909643   
511.000000	2.214825   
511.500000	2.401886   
512.000000	2.553492   
512.500000	2.626409   
513.000000	2.617734   
513.500000	2.489250   
514.000000	2.595772   
514.500000	2.690030   
515.000000	2.851522   
515.500000	2.865530   
516.000000	3.046484   
516.500000	3.100045   
517.000000	3.051325   
517.500000	2.865378   
518.000000	2.912128   
518.500000	3.270863   
519.000000	3.645462   
519.500000	3.766863   
520.000000	3.625037   
520.500000	3.370863   
521.000000	3.105553   
521.500000	2.960318   
522.000000	2.993916   
522.500000	3.010886   
523.000000	2.963401   
523.500000	2.885060   
524.000000	3.015909   
524.500000	3.188931   
525.000000	3.214318   
525.500000	3.129113   
526.000000	3.025174   
526.500000	2.999878   
527.000000	3.016356   
527.500000	3.183674   
528.000000	3.244280   
528.500000	3.242424   
529.000000	3.016439   
529.500000	2.898227   
530.000000	2.824356   
530.500000	2.978583   
531.000000	3.098977   
531.500000	3.201560   
532.000000	3.068393   
532.500000	2.859727   
533.000000	2.718431   
533.500000	2.769212   
534.000000	2.966931   
534.500000	3.235537   
535.000000	3.326371   
535.500000	3.142833   
536.000000	2.894272   
536.500000	2.785848   
537.000000	2.896265   
537.500000	3.003363   
538.000000	3.043303   
538.500000	3.030901   
539.000000	3.210189   
539.500000	3.362015   
540.000000	3.419833   
540.500000	3.120583   
541.000000	2.997196   
541.500000	3.169287   
542.000000	3.526878   
542.500000	3.645348   
543.000000	3.696931   
543.500000	3.808318   
544.000000	3.998333   
544.500000	3.964621   
545.000000	3.760393   
545.500000	3.501234   
546.000000	3.302613   
546.500000	3.324757   
547.000000	3.452810   
547.500000	3.584931   
548.000000	3.547689   
548.500000	3.310143   
549.000000	3.132340   
549.500000	3.171560   
550.000000	3.308590   
550.500000	3.494931   
551.000000	3.710787   
551.500000	3.832090   
552.000000	3.950075   
552.500000	3.995734   
553.000000	4.040893   
553.500000	3.945803   
554.000000	3.907674   
554.500000	3.858378   
555.000000	3.883083   
555.500000	3.723234   
556.000000	3.849787   
556.500000	4.055757   
557.000000	4.152757   
557.500000	3.936272   
558.000000	3.936689   
558.500000	4.021856   
559.000000	4.151212   
559.500000	4.024318   
560.000000	3.904863   
560.500000	3.798090   
561.000000	3.874083   
561.500000	3.996530   
562.000000	4.208969   
562.500000	4.288681   
563.000000	4.273037   
563.500000	4.151272   
564.000000	4.066757   
564.500000	4.151689   
565.000000	4.421143   
565.500000	4.641984   
566.000000	4.650030   
566.500000	4.380568   
567.000000	3.957083   
567.500000	3.611151   
568.000000	3.446015   
568.500000	3.615977   
569.000000	3.819068   
569.500000	3.974689   
570.000000	3.850356   
570.500000	3.842159   
571.000000	3.855287   
571.500000	4.109469   
572.000000	4.149106   
572.500000	4.297825   
573.000000	4.290272   
573.500000	4.277333   
574.000000	4.126257   
574.500000	4.106037   
575.000000	4.035022   
575.500000	3.919257   
576.000000	3.778704   
576.500000	3.808469   
577.000000	4.219318   
577.500000	4.634227   
578.000000	4.648553   
578.500000	4.191750   
579.000000	3.732295   
579.500000	3.722719   
580.000000	4.060901   
580.500000	4.144666   
581.000000	4.061098   
581.500000	3.960219   
582.000000	4.318098   
582.500000	4.626348   
583.000000	4.802765   
583.500000	4.446825   
584.000000	4.326681   
584.500000	4.214977   
585.000000	4.392833   
585.500000	4.493212   
586.000000	4.711227   
586.500000	4.748621   
587.000000	4.875310   
587.500000	5.054136   
588.000000	5.211848   
588.500000	5.174856   
589.000000	5.007204   
589.500000	4.935257   
590.000000	5.065037   
590.500000	5.212280   
591.000000	5.373749   
591.500000	5.497863   
592.000000	5.569310   
592.500000	5.491401   
593.000000	5.377174   
593.500000	5.518363   
594.000000	5.847393   
594.500000	6.113704   
595.000000	5.998772   
595.500000	5.977931   
596.000000	6.022174   
596.500000	6.156659   
597.000000	6.146787   
597.500000	6.216962   
598.000000	6.193984   
598.500000	6.277272   
599.000000	6.425606   
599.500000	6.767916   
600.000000	6.814318   
600.500000	6.884909   
601.000000	6.949810   
601.500000	7.182143   
602.000000	7.064159   
602.500000	6.941818   
603.000000	6.974431   
603.500000	7.252613   
604.000000	7.257886   
604.500000	7.107143   
605.000000	7.045462   
605.500000	7.358007   
606.000000	7.851272   
606.500000	8.274037   
607.000000	8.384196   
607.500000	8.486636   
608.000000	8.593606   
608.500000	8.783871   
609.000000	8.938439   
609.500000	9.006666   
610.000000	8.999250   
610.500000	8.752719   
611.000000	8.472234   
611.500000	8.204219   
612.000000	8.042810   
612.500000	7.873431   
613.000000	8.218340   
613.500000	8.673060   
614.000000	8.694151   
614.500000	8.082515   
615.000000	7.692310   
615.500000	8.059613   
616.000000	8.452196   
616.500000	8.388416   
617.000000	7.996356   
617.500000	7.819606   
618.000000	7.911681   
618.500000	7.970159   
619.000000	8.102310   
619.500000	8.263424   
620.000000	8.838181   
620.500000	9.228234   
621.000000	9.415181   
621.500000	9.275401   
622.000000	9.384303   
622.500000	9.755651   
623.000000	10.160007  
623.500000	10.649257  
624.000000	10.833742  
624.500000	10.984484  
625.000000	11.034780  
625.500000	11.489325  
626.000000	11.958053  
626.500000	12.381212  
627.000000	12.650825  
627.500000	13.008083  
628.000000	13.459333  
628.500000	13.864174  
629.000000	14.181674  
629.500000	14.460454  
630.000000	15.017666  
630.500000	15.353946  
631.000000	15.632121  
631.500000	15.767848  
632.000000	16.649340  
632.500000	17.913803  
633.000000	19.288477  
633.500000	19.912280  
634.000000	19.945037  
634.500000	19.673143  
635.000000	20.263022  
635.500000	21.639863  
636.000000	23.010545  
636.500000	23.701196  
637.000000	24.218575  
637.500000	24.966568  
638.000000	25.825318  
638.500000	26.331757  
639.000000	26.846196  
639.500000	27.773787  
640.000000	28.939757  
640.500000	30.057333  
641.000000	30.792939  
641.500000	31.282310  
642.000000	31.772022  
642.500000	32.841416  
643.000000	34.363750  
643.500000	36.283128  
644.000000	37.930189  
644.500000	39.219613  
645.000000	39.816568  
645.500000	40.574613  
646.000000	41.821522  
646.500000	43.502045  
647.000000	44.943734  
647.500000	46.394303  
648.000000	48.373772  
648.500000	50.366734  
649.000000	51.869916  
649.500000	52.743272  
650.000000	54.085560  
650.500000	55.684212  
651.000000	57.552303  
651.500000	59.341174  
652.000000	61.430469  
652.500000	63.086575  
653.000000	64.618007  
653.500000	66.501136  
654.000000	69.473840  
654.500000	72.343181  
655.000000	74.289462  
655.500000	75.665613  
656.000000	77.633984  
656.500000	80.517500  
657.000000	83.388856  
657.500000	85.761015  
658.000000	87.451174  
658.500000	89.202575  
659.000000	91.868530  
659.500000	95.566045  
660.000000	98.536121  
660.500000	100.718439 
661.000000	102.068234 
661.500000	104.649689 
662.000000	107.493575 
662.500000	110.880000 
663.000000	113.327303 
663.500000	116.175015 
664.000000	119.060893 
664.500000	122.240848 
665.000000	124.893848 
665.500000	126.802393 
666.000000	129.285060 
666.500000	131.594181 
667.000000	133.669848 
667.500000	135.257378 
668.000000	138.803568 
668.500000	143.241621 
669.000000	147.498189 
669.500000	150.096962 
670.000000	152.745409 
670.500000	155.786545 
671.000000	158.592189 
671.500000	160.751431 
672.000000	164.033871 
672.500000	166.651954 
673.000000	168.254106 
673.500000	168.825196 
674.000000	171.845318 
674.500000	176.235765 
675.000000	181.104303 
675.500000	184.206924 
676.000000	186.712962 
676.500000	188.074840 
677.000000	189.434848 
677.500000	191.623787 
678.000000	195.453840 
678.500000	199.259636 
679.000000	201.845053 
679.500000	203.527969 
680.000000	205.077333 
680.500000	207.987181 
681.000000	211.175803 
681.500000	214.040128 
682.000000	215.302303 
682.500000	216.359803 
683.000000	217.956530 
683.500000	221.618106 
684.000000	223.853878 
684.500000	224.579856 
685.000000	225.650113 
685.500000	228.510318 
686.000000	231.035613 
686.500000	231.207356 
687.000000	229.972151 
687.500000	230.054545 
688.000000	231.076424 
688.500000	231.834984 
689.000000	232.828916 
689.500000	233.724348 
690.000000	234.370568 
690.500000	233.514318 
691.000000	233.243068 
691.500000	233.005174 
692.000000	233.021931 
692.500000	231.298409 
693.000000	229.975871 
693.500000	228.229492 
694.000000	226.811901 
694.500000	224.483856 
695.000000	222.774378 
695.500000	221.202825 
696.000000	219.249037 
696.500000	215.566083 
697.000000	211.238651 
697.500000	207.837287 
698.000000	206.060356 
698.500000	204.186363 
699.000000	200.803689 
699.500000	196.337825 
700.000000	191.718090 
700.500000	187.355666 
701.000000	183.156689 
701.500000	179.528515 
702.000000	176.388621 
702.500000	173.685030 
703.000000	170.981128 
703.500000	167.486037 
704.000000	163.709590 
704.500000	159.499401 
705.000000	155.542893 
705.500000	151.069848 
706.000000	147.667098 
706.500000	143.870871 
707.000000	140.613946 
707.500000	136.529030 
708.000000	133.241469 
708.500000	130.012803 
709.000000	127.044083 
709.500000	123.389022 
710.000000	120.226575 
710.500000	117.340295 
711.000000	114.416015 
711.500000	111.128143 
712.000000	107.815628 
712.500000	105.329742 
713.000000	103.341507 
713.500000	100.793787 
714.000000	97.785121  
714.500000	94.959878  
715.000000	92.914333  
715.500000	90.643750  
716.000000	87.789295  
716.500000	84.844045  
717.000000	83.158833  
717.500000	81.655409  
718.000000	78.978689  
718.500000	75.700984  
719.000000	73.057113  
719.500000	71.394310  
720.000000	69.417037  
720.500000	66.991416  
721.000000	65.130666  
721.500000	63.986128  
722.000000	63.182787  
722.500000	61.363840  
723.000000	59.153287  
723.500000	56.702181  
724.000000	55.346704  
724.500000	53.848787  
725.000000	52.069825  
725.500000	49.886492  
726.000000	48.297492  
726.500000	46.772984  
727.000000	45.561628  
727.500000	44.507628  
728.000000	43.960446  
728.500000	43.110363  
729.000000	41.461037  
729.500000	39.607439  
730.000000	38.099121  
730.500000	37.031681  
731.000000	36.172901  
731.500000	35.589590  
732.000000	34.685666  
732.500000	33.294462  
733.000000	31.767280  
733.500000	30.700090  
734.000000	30.481537  
734.500000	30.194174  
735.000000	29.458409  
735.500000	28.436439  
736.000000	27.596431  
736.500000	27.105045  
737.000000	26.530893  
737.500000	25.764272  
738.000000	24.808409  
738.500000	24.386553  
739.000000	24.217189  
739.500000	23.813022  
740.000000	22.987916  
740.500000	22.005037  
741.000000	21.460166  
741.500000	21.133469  
742.000000	20.893681  
742.500000	20.145257  
743.000000	19.388234  
743.500000	18.758840  
744.000000	18.571363  
744.500000	17.997348  
745.000000	17.570257  
745.500000	17.249393  
746.000000	17.243083  
746.500000	16.560280  
747.000000	15.971583  
747.500000	15.549871  
748.000000	15.679098  
748.500000	15.158219  
749.000000	14.544840  
749.500000	14.007007  
750.000000	13.869401  
750.500000	13.753500  
751.000000	13.526159  
751.500000	13.151340  
752.000000	12.808303  
752.500000	12.588234  
753.000000	12.438295  
753.500000	12.249954  
754.000000	11.933075  
754.500000	11.741674  
755.000000	11.700075  
755.500000	11.457000  
756.000000	11.017734  
756.500000	10.568356  
757.000000	10.349772  
757.500000	10.257484  
758.000000	10.199696  
758.500000	10.172901  
759.000000	10.099484  
759.500000	9.673924   
760.000000	9.139651   
760.500000	8.775272   
761.000000	8.951954   
761.500000	9.250886   
762.000000	9.134022   
762.500000	8.755401   
763.000000	8.450734   
763.500000	8.386356   
764.000000	8.159659   
764.500000	7.854719   
765.000000	7.548924   
765.500000	7.592371   
766.000000	7.324575   
766.500000	7.065454   
767.000000	6.879856   
767.500000	6.871401   
768.000000	6.613545   
768.500000	6.447462   
769.000000	6.383681   
769.500000	6.541719   
770.000000	6.483007   
770.500000	6.300977   
771.000000	5.959977   
771.500000	5.640196   
772.000000	5.442939   
772.500000	5.537318   
773.000000	5.633787   
773.500000	5.578015   
774.000000	5.433954   
774.500000	5.337984   
775.000000	5.397204   
775.500000	5.409537   
776.000000	5.204628   
776.500000	4.882090   
777.000000	4.737969   
777.500000	4.719295   
778.000000	4.688916   
778.500000	4.529371   
779.000000	4.357825   
779.500000	4.338325   
780.000000	4.369954   
780.500000	4.530113   
781.000000	4.596075   
781.500000	4.483772   
782.000000	4.262454   
782.500000	4.061916   
783.000000	3.993871   
783.500000	4.093712   
784.000000	4.270560   
784.500000	4.297500   
785.000000	4.222234   
785.500000	4.098916   
786.000000	3.921204   
786.500000	3.686772   
787.000000	3.615227   
787.500000	3.938757   
788.000000	4.135537   
788.500000	3.885136   
789.000000	3.465053   
789.500000	3.259356   
790.000000	3.252136   
790.500000	3.127568   
791.000000	2.967287   
791.500000	2.974477   
792.000000	3.244340   
792.500000	3.541856   
793.000000	3.568454   
793.500000	3.264909   
794.000000	2.942704   
794.500000	3.072030   
795.000000	3.352712   
795.500000	3.506113   
796.000000	3.415022   
796.500000	3.403242   
797.000000	3.405424   
797.500000	3.347151   
798.000000	3.201893   
798.500000	3.084856   
799.000000	3.050590   
799.500000	3.001492   
800.000000	2.973166   
800.500000	3.052090   
801.000000	3.212689   
801.500000	3.343878   
802.000000	3.165128   
802.500000	2.886242   
803.000000	2.639909   
803.500000	2.741007   
804.000000	2.901871   
804.500000	3.074053   
805.000000	3.052454   
805.500000	2.949242   
806.000000	2.828840   
806.500000	2.743340   
807.000000	2.715825   
807.500000	2.648575   
808.000000	2.653727   
808.500000	2.625000   
809.000000	2.640500   
809.500000	2.638712   
810.000000	2.782803   
810.500000	2.830378   
811.000000	2.679484   
811.500000	2.445818   
812.000000	2.399159   
812.500000	2.513121   
813.000000	2.550409   
813.500000	2.566469   
814.000000	2.576318   
814.500000	2.631848   
815.000000	2.605068   
815.500000	2.493409   
816.000000	2.293568   
816.500000	2.201977   
817.000000	2.334628   
817.500000	2.584143   
818.000000	2.724083   
818.500000	2.706780   
819.000000	2.627439   
819.500000	2.550431   
820.000000	2.496037   
820.500000	2.607181   
821.000000	2.723878   
821.500000	2.802393   
822.000000	2.775795   
822.500000	2.825356   
823.000000	2.895681   
823.500000	3.031401   
824.000000	3.268484   
824.500000	3.407250   
825.000000	3.331454   
825.500000	3.015424   
826.000000	2.782515   
826.500000	2.675515   
827.000000	2.727431   
827.500000	2.658606   
828.000000	2.570803   
828.500000	2.462401   
829.000000	2.446575   
829.500000	2.516901   
830.000000	2.627833   
830.500000	2.671090   
831.000000	2.494136   
831.500000	1.981075   
832.000000	1.547265   
832.500000	1.529795   
833.000000	1.866674   
833.500000	2.059022   
834.000000	1.973833   
834.500000	1.692166   
835.000000	1.561045   
835.500000	1.414878   
836.000000	1.371560   
836.500000	1.310075   
837.000000	1.317765   
837.500000	1.273636   
838.000000	1.249568   
838.500000	1.188477   
839.000000	1.121901   
839.500000	1.030818   
840.000000	0.929992   
840.500000	0.895575   
841.000000	0.941181   
841.500000	1.024780   
842.000000	1.041272   
842.500000	0.976606   
843.000000	0.940689   
843.500000	0.971575   
844.000000	0.982931   
844.500000	0.909083   
845.000000	0.835810   
845.500000	0.819787   
846.000000	0.771068   
846.500000	0.756515   
847.000000	0.777522   
847.500000	0.832886   
848.000000	0.754924   
848.500000	0.690651   
849.000000	0.645250   
849.500000	0.662977   
850.000000	0.470060   
850.500000	0.266393   
851.000000	0.070363   
851.500000	0.076590   
852.000000	0.076219   
852.500000	0.034409   
853.000000	-0.038848  
853.500000	0.079659   
854.000000	0.269106   
854.500000	0.340371   
855.000000	0.297484   
855.500000	0.228871   
856.000000	0.142212   
856.500000	0.046689   
857.000000	0.038393   
857.500000	0.201060   
858.000000	0.317704   
858.500000	0.301719   
859.000000	0.251643   
859.500000	0.234689   
860.000000	0.332219   
860.500000	0.362083   
861.000000	0.297401   
861.500000	0.122863   
862.000000	0.059545   
862.500000	0.006401   
863.000000	-0.000212  
863.500000	0.056022   
864.000000	0.111833   
864.500000	0.054090   
865.000000	-0.119810  
865.500000	-0.088045  
866.000000	0.006515   
866.500000	-0.018219  
867.000000	-0.173833  
867.500000	-0.183393  
868.000000	-0.065325  
868.500000	0.061765   
869.000000	0.060090   
869.500000	0.012325   
870.000000	0.035969   
870.500000	0.129810   
871.000000	0.219522   
871.500000	0.190431   
872.000000	0.086287   
872.500000	-0.053333  
873.000000	-0.114416  
873.500000	-0.164166  
874.000000	-0.102469  
874.500000	0.023007   
875.000000	0.165242   
875.500000	0.098272   
876.000000	-0.093159  
876.500000	-0.282121  
877.000000	-0.269022  
877.500000	-0.217787  
878.000000	-0.085265  
878.500000	0.045128   
879.000000	0.210734   
879.500000	0.217893   
880.000000	0.229007   
880.500000	0.242469   
881.000000	0.254893   
881.500000	0.136871   
882.000000	0.024189   
882.500000	-0.010250  
883.000000	0.033787   
883.500000	0.042992   
884.000000	-0.021121  
884.500000	-0.078469  
885.000000	-0.015848  
885.500000	0.140068   
886.000000	0.222863   
886.500000	0.177287   
887.000000	0.015416   
887.500000	-0.085734  
888.000000	-0.062333  
888.500000	0.038181   
889.000000	0.067765   
889.500000	0.012242   
890.000000	-0.041037  
890.500000	0.043946   
891.000000	0.104719   
891.500000	0.045946   
892.000000	-0.058030  
892.500000	-0.053431  
893.000000	-0.031878  
893.500000	-0.009659  
894.000000	-0.022757  
894.500000	0.028522   
895.000000	0.081015   
895.500000	0.042371   
896.000000	-0.024257  
896.500000	-0.104227  
897.000000	-0.156977  
897.500000	-0.184068  
898.000000	-0.181696  
898.500000	-0.155121  
899.000000	-0.079356  
899.500000	-0.001484  
900.000000	-0.035098  
900.500000	-0.240000  

