PE FL                   SPECTRUM    ASCII       PEDS        1.60        
  -1
S06P.SP
24/04/05
12:14:12.00
24/04/05
12:15:35.00
Jan

900.500000
1









LS55
455.00
5.00
5.00
SCAN
1
20
100
100
0
400
0
1
0
1
5
ON
900 455 
1 0 0
#HDR
-1
-1
#GR
NM

0.00002384185791015625
0.0
460.000000
0.500000
882
8
168.822098
-0.435924
#DATA
460.000000	0.616000   
460.500000	0.082704   
461.000000	-0.023628  
461.500000	0.138810   
462.000000	0.169030   
462.500000	0.041121   
463.000000	-0.012378  
463.500000	0.024969   
464.000000	0.029598   
464.500000	0.053249   
465.000000	0.076606   
465.500000	0.086507   
466.000000	-0.006916  
466.500000	-0.072053  
467.000000	-0.056136  
467.500000	-0.073727  
468.000000	-0.090780  
468.500000	-0.172189  
469.000000	-0.233583  
469.500000	-0.232962  
470.000000	-0.021212  
470.500000	0.177181   
471.000000	0.232643   
471.500000	0.068287   
472.000000	-0.110363  
472.500000	-0.229045  
473.000000	-0.242371  
473.500000	-0.228901  
474.000000	-0.133356  
474.500000	-0.056075  
475.000000	-0.014803  
475.500000	-0.099810  
476.000000	-0.165416  
476.500000	-0.107166  
477.000000	0.027833   
477.500000	0.079174   
478.000000	-0.048090  
478.500000	-0.088530  
479.000000	-0.062265  
479.500000	0.001090   
480.000000	-0.018575  
480.500000	0.010371   
481.000000	0.043136   
481.500000	0.085712   
482.000000	0.133219   
482.500000	0.127068   
483.000000	0.033522   
483.500000	-0.081333  
484.000000	-0.059151  
484.500000	0.104522   
485.000000	0.170818   
485.500000	0.139242   
486.000000	0.153060   
486.500000	0.146772   
487.000000	0.039742   
487.500000	-0.155992  
488.000000	-0.224507  
488.500000	-0.224189  
489.000000	-0.108060  
489.500000	-0.087015  
490.000000	0.039363   
490.500000	0.084484   
491.000000	0.098227   
491.500000	0.068401   
492.000000	0.174742   
492.500000	0.213234   
493.000000	0.164212   
493.500000	-0.033371  
494.000000	-0.134780  
494.500000	-0.219666  
495.000000	-0.129530  
495.500000	0.011795   
496.000000	0.196242   
496.500000	0.214174   
497.000000	0.118681   
497.500000	0.136924   
498.000000	0.273287   
498.500000	0.427962   
499.000000	0.418378   
499.500000	0.404507   
500.000000	0.369053   
500.500000	0.469333   
501.000000	0.509333   
501.500000	0.514318   
502.000000	0.492371   
502.500000	0.560810   
503.000000	0.631931   
503.500000	0.682848   
504.000000	0.671257   
504.500000	0.672401   
505.000000	0.709386   
505.500000	0.771954   
506.000000	0.840424   
506.500000	0.876590   
507.000000	0.937568   
507.500000	0.913098   
508.000000	0.866818   
508.500000	0.820984   
509.000000	0.908212   
509.500000	0.932393   
510.000000	0.914840   
510.500000	0.832469   
511.000000	0.875401   
511.500000	1.004878   
512.000000	1.295280   
512.500000	1.545742   
513.000000	1.694075   
513.500000	1.609257   
514.000000	1.442636   
514.500000	1.342446   
515.000000	1.475348   
515.500000	1.701000   
516.000000	1.951810   
516.500000	1.896166   
517.000000	1.708242   
517.500000	1.462469   
518.000000	1.333022   
518.500000	1.420500   
519.000000	1.598825   
519.500000	1.750909   
520.000000	1.759143   
520.500000	1.791439   
521.000000	1.824219   
521.500000	1.930537   
522.000000	1.955522   
522.500000	1.916462   
523.000000	1.828856   
523.500000	1.747318   
524.000000	1.859674   
524.500000	2.037454   
525.000000	2.193560   
525.500000	2.186727   
526.000000	2.148545   
526.500000	2.202560   
527.000000	2.406424   
527.500000	2.482068   
528.000000	2.367712   
528.500000	2.140901   
529.000000	2.133113   
529.500000	2.310416   
530.000000	2.558068   
530.500000	2.658719   
531.000000	2.606946   
531.500000	2.485545   
532.000000	2.324022   
532.500000	2.291325   
533.000000	2.339249   
533.500000	2.546893   
534.000000	2.682015   
534.500000	2.817007   
535.000000	2.754825   
535.500000	2.682257   
536.000000	2.595121   
536.500000	2.670446   
537.000000	2.898159   
537.500000	3.080477   
538.000000	3.106219   
538.500000	3.004954   
539.000000	3.062250   
539.500000	3.151068   
540.000000	3.294113   
540.500000	3.391780   
541.000000	3.656712   
541.500000	3.980689   
542.000000	4.171901   
542.500000	4.262083   
543.000000	4.587340   
543.500000	4.950984   
544.000000	5.189371   
544.500000	4.937772   
545.000000	4.622189   
545.500000	4.470060   
546.000000	4.641378   
546.500000	4.923795   
547.000000	5.381734   
547.500000	5.858492   
548.000000	6.114621   
548.500000	6.228446   
549.000000	6.229454   
549.500000	6.417681   
550.000000	6.569310   
550.500000	6.647522   
551.000000	6.735022   
551.500000	6.963242   
552.000000	7.154015   
552.500000	7.277704   
553.000000	7.504189   
553.500000	7.922848   
554.000000	8.294492   
554.500000	8.361484   
555.000000	8.144356   
555.500000	8.003818   
556.000000	8.241765   
556.500000	8.587886   
557.000000	8.814393   
557.500000	8.665128   
558.000000	8.666287   
558.500000	9.047886   
559.000000	9.608901   
559.500000	9.752371   
560.000000	9.510234   
560.500000	9.426765   
561.000000	9.443212   
561.500000	9.442015   
562.000000	9.146227   
562.500000	8.953015   
563.000000	8.896939   
563.500000	9.011931   
564.000000	8.948257   
564.500000	8.964530   
565.000000	8.839439   
565.500000	8.777083   
566.000000	8.716553   
566.500000	8.845636   
567.000000	8.773992   
567.500000	8.859492   
568.000000	8.897878   
568.500000	9.182401   
569.000000	9.428636   
569.500000	9.507356   
570.000000	9.483757   
570.500000	9.363166   
571.000000	9.450181   
571.500000	9.523196   
572.000000	9.438340   
572.500000	9.179530   
573.000000	9.318734   
573.500000	9.762590   
574.000000	10.103886  
574.500000	10.224757  
575.000000	10.248530  
575.500000	10.430212  
576.000000	10.666946  
576.500000	10.719250  
577.000000	10.799719  
577.500000	10.796924  
578.000000	10.971772  
578.500000	10.977477  
579.000000	11.070386  
579.500000	11.151530  
580.000000	11.570113  
580.500000	11.909780  
581.000000	12.284000  
581.500000	12.625568  
582.000000	12.723393  
582.500000	12.621204  
583.000000	12.710212  
583.500000	13.159537  
584.000000	13.426068  
584.500000	13.366356  
585.000000	13.306128  
585.500000	13.700651  
586.000000	13.938250  
586.500000	13.838659  
587.000000	13.691606  
587.500000	13.745742  
588.000000	13.872507  
588.500000	14.033340  
589.000000	14.359015  
589.500000	14.788939  
590.000000	15.332886  
590.500000	15.743234  
591.000000	15.994590  
591.500000	15.981719  
592.000000	16.151356  
592.500000	16.612204  
593.000000	17.172189  
593.500000	17.431143  
594.000000	17.527916  
594.500000	17.508863  
595.000000	17.682780  
595.500000	17.809598  
596.000000	18.116030  
596.500000	18.652287  
597.000000	19.643424  
597.500000	20.487522  
598.000000	20.944719  
598.500000	20.908151  
599.000000	21.098219  
599.500000	21.150204  
600.000000	20.976424  
600.500000	20.886159  
601.000000	21.488750  
601.500000	22.454954  
602.000000	23.012000  
602.500000	22.923446  
603.000000	23.006666  
603.500000	23.884257  
604.000000	25.173007  
604.500000	26.030795  
605.000000	26.192939  
605.500000	26.163265  
606.000000	26.419386  
606.500000	26.631878  
607.000000	26.906939  
607.500000	27.323136  
608.000000	28.140128  
608.500000	28.486696  
609.000000	28.268939  
609.500000	27.896045  
610.000000	27.966659  
610.500000	27.682174  
611.000000	27.059189  
611.500000	26.553280  
612.000000	26.669803  
612.500000	26.371651  
613.000000	25.430409  
613.500000	24.400106  
614.000000	24.193909  
614.500000	24.104250  
615.000000	23.836431  
615.500000	23.319575  
616.000000	23.136106  
616.500000	22.968462  
617.000000	22.441787  
617.500000	21.491477  
618.000000	21.058378  
618.500000	21.620037  
619.000000	22.988166  
619.500000	23.973424  
620.000000	24.217416  
620.500000	23.829636  
621.000000	23.813780  
621.500000	23.847795  
622.000000	24.113227  
622.500000	24.532689  
623.000000	25.276484  
623.500000	25.826446  
624.000000	26.041378  
624.500000	26.304909  
625.000000	26.826962  
625.500000	27.355386  
626.000000	27.609068  
626.500000	27.970128  
627.000000	28.516416  
627.500000	29.251583  
628.000000	29.850068  
628.500000	30.034643  
629.000000	30.215871  
629.500000	30.817219  
630.000000	31.907053  
630.500000	33.076674  
631.000000	34.215939  
631.500000	34.965295  
632.000000	35.558454  
632.500000	35.920613  
633.000000	36.536166  
633.500000	37.182037  
634.000000	38.068242  
634.500000	39.049840  
635.000000	39.956606  
635.500000	40.419204  
636.000000	41.259416  
636.500000	42.625840  
637.000000	44.490871  
637.500000	45.901257  
638.000000	46.820560  
638.500000	47.226863  
639.000000	48.029325  
639.500000	49.113249  
640.000000	50.261477  
640.500000	51.458795  
641.000000	52.880000  
641.500000	54.799643  
642.000000	55.862999  
642.500000	56.264303  
643.000000	56.605727  
643.500000	58.183363  
644.000000	60.287000  
644.500000	62.627659  
645.000000	64.466333  
645.500000	66.363659  
646.000000	67.632689  
646.500000	67.969128  
647.000000	67.671159  
647.500000	68.615189  
648.000000	71.061636  
648.500000	74.516787  
649.000000	77.073068  
649.500000	78.828946  
650.000000	79.934537  
650.500000	81.207931  
651.000000	82.257507  
651.500000	83.568439  
652.000000	84.830916  
652.500000	86.923287  
653.000000	90.030598  
653.500000	93.370992  
654.000000	95.994825  
654.500000	97.469674  
655.000000	98.966348  
655.500000	100.355356 
656.000000	102.192893 
656.500000	104.960363 
657.000000	108.309295 
657.500000	111.319234 
658.000000	112.895045 
658.500000	114.169219 
659.000000	114.807856 
659.500000	115.967757 
660.000000	117.442727 
660.500000	120.197606 
661.000000	122.611462 
661.500000	125.050075 
662.000000	127.351325 
662.500000	129.605893 
663.000000	130.801265 
663.500000	131.907984 
664.000000	134.557621 
664.500000	138.175871 
665.000000	141.349984 
665.500000	142.698090 
666.000000	143.727553 
666.500000	144.896189 
667.000000	146.686560 
667.500000	148.727378 
668.000000	150.691045 
668.500000	152.073810 
669.000000	152.592068 
669.500000	153.679901 
670.000000	155.542401 
670.500000	158.104053 
671.000000	159.515810 
671.500000	160.037272 
672.000000	160.578734 
672.500000	160.856416 
673.000000	161.422219 
673.500000	162.381522 
674.000000	164.239590 
674.500000	165.664742 
675.000000	165.502681 
675.500000	164.768628 
676.000000	165.269575 
676.500000	166.831272 
677.000000	168.463909 
677.500000	168.822098 
678.000000	167.928886 
678.500000	166.882174 
679.000000	167.065803 
679.500000	167.139068 
680.000000	166.331878 
680.500000	164.571340 
681.000000	164.160909 
681.500000	164.743189 
682.000000	164.434772 
682.500000	163.240500 
683.000000	160.863037 
683.500000	158.357636 
684.000000	155.841659 
684.500000	154.406742 
685.000000	152.833090 
685.500000	151.208613 
686.000000	149.319287 
686.500000	148.170530 
687.000000	147.246409 
687.500000	145.391106 
688.000000	143.273727 
688.500000	140.617651 
689.000000	137.632015 
689.500000	134.839939 
690.000000	132.252234 
690.500000	129.546939 
691.000000	126.981356 
691.500000	124.817212 
692.000000	122.680234 
692.500000	120.846507 
693.000000	118.560083 
693.500000	115.997871 
694.000000	112.551886 
694.500000	109.397340 
695.000000	107.402825 
695.500000	105.966659 
696.000000	103.561742 
696.500000	101.025969 
697.000000	98.471954  
697.500000	96.560909  
698.000000	94.343053  
698.500000	92.294515  
699.000000	89.861166  
699.500000	87.172303  
700.000000	84.133818  
700.500000	81.648727  
701.000000	78.806295  
701.500000	75.961977  
702.000000	73.349909  
702.500000	71.357075  
703.000000	70.210378  
703.500000	69.543515  
704.000000	68.417848  
704.500000	66.039659  
705.000000	62.992409  
705.500000	60.657022  
706.000000	59.166257  
706.500000	57.697015  
707.000000	55.920431  
707.500000	54.515295  
708.000000	53.138272  
708.500000	51.739075  
709.000000	50.246007  
709.500000	48.976242  
710.000000	47.767666  
710.500000	47.065750  
711.000000	46.549272  
711.500000	45.848325  
712.000000	44.861522  
712.500000	43.975689  
713.000000	43.005719  
713.500000	41.913219  
714.000000	40.013651  
714.500000	38.913136  
715.000000	38.394734  
715.500000	38.672431  
716.000000	38.087689  
716.500000	37.448848  
717.000000	36.022333  
717.500000	34.698333  
718.000000	32.676893  
718.500000	30.855181  
719.000000	29.361469  
719.500000	28.748696  
720.000000	28.764962  
720.500000	28.924848  
721.000000	28.294015  
721.500000	27.212825  
722.000000	26.123068  
722.500000	25.889878  
723.000000	25.672106  
723.500000	25.238098  
724.000000	24.007568  
724.500000	22.892780  
725.000000	22.208196  
725.500000	22.256916  
726.000000	22.403795  
726.500000	22.020068  
727.000000	21.221583  
727.500000	20.543984  
728.000000	20.122393  
728.500000	19.778734  
729.000000	19.167878  
729.500000	18.653348  
730.000000	18.185151  
730.500000	17.933984  
731.000000	17.834909  
731.500000	17.934704  
732.000000	17.929166  
732.500000	17.439856  
733.000000	16.736477  
733.500000	16.096583  
734.000000	15.672590  
734.500000	15.486765  
735.000000	15.349409  
735.500000	15.143833  
736.000000	14.585250  
736.500000	14.240287  
737.000000	13.953090  
737.500000	13.934772  
738.000000	13.469469  
738.500000	13.088651  
739.000000	12.943515  
739.500000	13.117356  
740.000000	13.203265  
740.500000	12.940257  
741.000000	12.390409  
741.500000	11.922780  
742.000000	11.730409  
742.500000	11.522295  
743.000000	11.328318  
743.500000	11.215462  
744.000000	11.236848  
744.500000	11.138803  
745.000000	10.872333  
745.500000	10.717780  
746.000000	10.759931  
746.500000	10.614689  
747.000000	10.259219  
747.500000	9.786818   
748.000000	9.554484   
748.500000	9.410916   
749.000000	9.419310   
749.500000	9.314901   
750.000000	9.239719   
750.500000	9.050393   
751.000000	8.898689   
751.500000	8.809568   
752.000000	8.619386   
752.500000	8.550553   
753.000000	8.563371   
753.500000	8.688196   
754.000000	8.629265   
754.500000	8.328166   
755.000000	7.858780   
755.500000	7.613954   
756.000000	7.741696   
756.500000	8.105583   
757.000000	8.300780   
757.500000	8.043143   
758.000000	7.709416   
758.500000	7.434803   
759.000000	7.214030   
759.500000	7.046295   
760.000000	6.958727   
760.500000	7.228196   
761.000000	7.643227   
761.500000	7.840893   
762.000000	7.621378   
762.500000	7.081159   
763.000000	6.520159   
763.500000	6.322560   
764.000000	6.445378   
764.500000	6.732363   
765.000000	6.593015   
765.500000	6.147401   
766.000000	5.897772   
766.500000	5.977257   
767.000000	5.976598   
767.500000	5.815537   
768.000000	5.730530   
768.500000	5.941977   
769.000000	6.069469   
769.500000	5.801719   
770.000000	5.453106   
770.500000	5.350454   
771.000000	5.532462   
771.500000	5.703060   
772.000000	5.603780   
772.500000	5.290590   
773.000000	5.096431   
773.500000	5.040242   
774.000000	5.054871   
774.500000	4.883530   
775.000000	4.692295   
775.500000	4.647113   
776.000000	4.786613   
776.500000	4.991318   
777.000000	5.055250   
777.500000	4.989931   
778.000000	4.843977   
778.500000	4.836863   
779.000000	4.774583   
779.500000	4.493553   
780.000000	4.112015   
780.500000	4.058537   
781.000000	4.307924   
781.500000	4.469515   
782.000000	4.514931   
782.500000	4.247121   
783.000000	3.975431   
783.500000	3.767401   
784.000000	3.923909   
784.500000	4.130704   
785.000000	4.284674   
785.500000	4.262416   
786.000000	4.375507   
786.500000	4.310590   
787.000000	4.186704   
787.500000	3.933530   
788.000000	3.957318   
788.500000	3.916265   
789.000000	3.960780   
789.500000	3.696272   
790.000000	3.655053   
790.500000	3.667780   
791.000000	3.699166   
791.500000	3.508636   
792.000000	3.410333   
792.500000	3.472333   
793.000000	3.522113   
793.500000	3.498227   
794.000000	3.444545   
794.500000	3.443174   
795.000000	3.399356   
795.500000	3.313674   
796.000000	3.226075   
796.500000	3.217795   
797.000000	3.218393   
797.500000	3.283363   
798.000000	3.150848   
798.500000	3.043030   
799.000000	2.964833   
799.500000	3.096878   
800.000000	3.074704   
800.500000	2.973007   
801.000000	2.806606   
801.500000	2.823825   
802.000000	3.000863   
802.500000	3.172325   
803.000000	3.185045   
803.500000	3.016083   
804.000000	2.871772   
804.500000	2.782734   
805.000000	2.807045   
805.500000	2.906250   
806.000000	2.993439   
806.500000	2.991916   
807.000000	2.975818   
807.500000	2.928439   
808.000000	2.807030   
808.500000	2.603871   
809.000000	2.615159   
809.500000	2.802757   
810.000000	2.932590   
810.500000	2.818553   
811.000000	2.639712   
811.500000	2.548583   
812.000000	2.619992   
812.500000	2.716409   
813.000000	2.768613   
813.500000	2.736522   
814.000000	2.723492   
814.500000	2.756878   
815.000000	2.788795   
815.500000	2.704500   
816.000000	2.667212   
816.500000	2.736250   
817.000000	2.754181   
817.500000	2.636484   
818.000000	2.422704   
818.500000	2.413053   
819.000000	2.547666   
819.500000	2.779083   
820.000000	2.837166   
820.500000	2.958719   
821.000000	3.075128   
821.500000	3.263174   
822.000000	3.316575   
822.500000	3.283560   
823.000000	3.173257   
823.500000	3.141409   
824.000000	3.258060   
824.500000	3.335848   
825.000000	3.435598   
825.500000	3.445416   
826.000000	3.409348   
826.500000	3.252166   
827.000000	3.027416   
827.500000	2.839606   
828.000000	2.726583   
828.500000	2.638128   
829.000000	2.558962   
829.500000	2.508719   
830.000000	2.361128   
830.500000	2.227310   
831.000000	2.234757   
831.500000	2.313189   
832.000000	2.445946   
832.500000	2.533727   
833.000000	2.499909   
833.500000	2.261219   
834.000000	1.980280   
834.500000	1.754196   
835.000000	1.684545   
835.500000	1.607681   
836.000000	1.685333   
836.500000	1.755075   
837.000000	1.701363   
837.500000	1.406553   
838.000000	1.265712   
838.500000	1.260424   
839.000000	1.315053   
839.500000	1.224553   
840.000000	1.102742   
840.500000	1.032272   
841.000000	0.945719   
841.500000	0.820189   
842.000000	0.820000   
842.500000	0.927234   
843.000000	0.988030   
843.500000	0.894090   
844.000000	0.776689   
844.500000	0.799151   
845.000000	0.925583   
845.500000	0.981151   
846.000000	0.957583   
846.500000	0.954666   
847.000000	0.887378   
847.500000	0.748318   
848.000000	0.621909   
848.500000	0.483954   
849.000000	0.379886   
849.500000	0.286340   
850.000000	0.378734   
850.500000	0.538946   
851.000000	0.721628   
851.500000	0.762272   
852.000000	0.854772   
852.500000	0.802386   
853.000000	0.662984   
853.500000	0.494651   
854.000000	0.379651   
854.500000	0.272166   
855.000000	0.222810   
855.500000	0.212606   
856.000000	0.233409   
856.500000	0.179462   
857.000000	0.120393   
857.500000	0.132431   
858.000000	0.209659   
858.500000	0.175636   
859.000000	0.067598   
859.500000	-0.023689  
860.000000	0.074750   
860.500000	0.254818   
861.000000	0.341856   
861.500000	0.216977   
862.000000	0.167757   
862.500000	0.162606   
863.000000	0.157659   
863.500000	-0.006075  
864.000000	-0.064340  
864.500000	-0.060174  
865.000000	-0.022780  
865.500000	-0.076840  
866.000000	-0.175000  
866.500000	-0.132636  
867.000000	-0.033750  
867.500000	0.139810   
868.000000	0.112522   
868.500000	-0.017825  
869.000000	-0.194212  
869.500000	-0.177106  
870.000000	-0.119871  
870.500000	-0.021295  
871.000000	0.080159   
871.500000	0.148954   
872.000000	0.177401   
872.500000	0.099939   
873.000000	0.048272   
873.500000	-0.054666  
874.000000	-0.034439  
874.500000	0.043060   
875.000000	0.221651   
875.500000	0.193000   
876.000000	0.066348   
876.500000	-0.092734  
877.000000	-0.077704  
877.500000	-0.045795  
878.000000	-0.031318  
878.500000	-0.035871  
879.000000	0.059022   
879.500000	0.197053   
880.000000	0.177212   
880.500000	-0.011068  
881.000000	-0.234303  
881.500000	-0.237772  
882.000000	-0.164068  
882.500000	-0.069151  
883.000000	-0.055242  
883.500000	0.021712   
884.000000	0.108303   
884.500000	0.132765   
885.000000	0.045984   
885.500000	-0.107719  
886.000000	-0.176416  
886.500000	-0.139689  
887.000000	-0.104765  
887.500000	-0.127136  
888.000000	-0.142219  
888.500000	-0.062863  
889.000000	0.026106   
889.500000	0.047636   
890.000000	-0.022159  
890.500000	-0.092242  
891.000000	-0.058007  
891.500000	-0.026719  
892.000000	-0.052893  
892.500000	-0.141621  
893.000000	-0.160840  
893.500000	-0.170500  
894.000000	-0.230386  
894.500000	-0.299393  
895.000000	-0.229530  
895.500000	-0.057249  
896.000000	0.083386   
896.500000	0.062568   
897.000000	-0.041007  
897.500000	-0.136522  
898.000000	-0.132015  
898.500000	-0.164992  
899.000000	-0.277621  
899.500000	-0.418386  
900.000000	-0.435924  
900.500000	-0.335000  

