PE FL                   SPECTRUM    ASCII       PEDS        1.60        
  -1
S02P.SP
24/04/05
11:25:26.00
24/04/05
11:26:40.00
Jan

900.500000
1









LS55
455.00
5.00
5.00
SCAN
1
20
100
100
0
400
0
1
0
1
5
ON
435 365 
1 0 0
#HDR
-1
-1
#GR
NM

0.00002384185791015625
0.0
460.000000
0.500000
882
8
535.630166
-0.242106
#DATA
460.000000	0.061999   
460.500000	0.249484   
461.000000	0.381462   
461.500000	0.435007   
462.000000	0.364742   
462.500000	0.361401   
463.000000	0.388939   
463.500000	0.429386   
464.000000	0.339659   
464.500000	0.178386   
465.000000	0.100931   
465.500000	0.154439   
466.000000	0.244825   
466.500000	0.219121   
467.000000	0.121780   
467.500000	0.020007   
468.000000	0.002772   
468.500000	-0.006106  
469.000000	0.051333   
469.500000	0.219378   
470.000000	0.414659   
470.500000	0.542712   
471.000000	0.491363   
471.500000	0.341378   
472.000000	0.248090   
472.500000	0.270242   
473.000000	0.275696   
473.500000	0.254901   
474.000000	0.230242   
474.500000	0.330712   
475.000000	0.431924   
475.500000	0.515871   
476.000000	0.502318   
476.500000	0.401106   
477.000000	0.255393   
477.500000	0.307287   
478.000000	0.502106   
478.500000	0.718954   
479.000000	0.682181   
479.500000	0.567143   
480.000000	0.396704   
480.500000	0.223257   
481.000000	0.022946   
481.500000	0.058068   
482.000000	0.201992   
482.500000	0.325424   
483.000000	0.381583   
483.500000	0.425772   
484.000000	0.541280   
484.500000	0.477749   
485.000000	0.358848   
485.500000	0.167446   
486.000000	0.179060   
486.500000	0.208537   
487.000000	0.368030   
487.500000	0.453348   
488.000000	0.522242   
488.500000	0.425477   
489.000000	0.299674   
489.500000	0.206484   
490.000000	0.339522   
490.500000	0.556272   
491.000000	0.657416   
491.500000	0.504765   
492.000000	0.289181   
492.500000	0.302962   
493.000000	0.580053   
493.500000	0.777689   
494.000000	0.702424   
494.500000	0.519143   
495.000000	0.502977   
495.500000	0.652848   
496.000000	0.817015   
496.500000	0.906174   
497.000000	0.918303   
497.500000	0.822939   
498.000000	0.739371   
498.500000	0.740954   
499.000000	0.756742   
499.500000	0.698446   
500.000000	0.692022   
500.500000	0.751356   
501.000000	0.851136   
501.500000	0.893462   
502.000000	0.988325   
502.500000	1.096022   
503.000000	1.120848   
503.500000	1.068325   
504.000000	0.947924   
504.500000	0.886742   
505.000000	0.868075   
505.500000	1.076696   
506.000000	1.362818   
506.500000	1.639325   
507.000000	1.571818   
507.500000	1.369909   
508.000000	1.178787   
508.500000	1.149409   
509.000000	1.232181   
509.500000	1.341984   
510.000000	1.541901   
510.500000	1.694681   
511.000000	1.857545   
511.500000	1.874106   
512.000000	1.924333   
512.500000	1.907143   
513.000000	2.058598   
513.500000	2.133234   
514.000000	2.148674   
514.500000	2.037151   
515.000000	2.038500   
515.500000	2.025893   
516.000000	2.052772   
516.500000	2.064037   
517.000000	2.190250   
517.500000	2.283143   
518.000000	2.410196   
518.500000	2.509969   
519.000000	2.646598   
519.500000	2.596515   
520.000000	2.526424   
520.500000	2.536446   
521.000000	2.753143   
521.500000	2.862090   
522.000000	2.871462   
522.500000	2.774909   
523.000000	2.707189   
523.500000	2.652583   
524.000000	2.685545   
524.500000	2.851484   
525.000000	3.050825   
525.500000	3.196848   
526.000000	3.211575   
526.500000	3.192022   
527.000000	3.150143   
527.500000	3.111500   
528.000000	3.197037   
528.500000	3.445946   
529.000000	3.730765   
529.500000	3.749098   
530.000000	3.844159   
530.500000	3.919151   
531.000000	4.143522   
531.500000	4.067757   
532.000000	4.134098   
532.500000	4.194356   
533.000000	4.358606   
533.500000	4.343886   
534.000000	4.517265   
534.500000	4.734636   
535.000000	4.917272   
535.500000	5.071651   
536.000000	4.999598   
536.500000	5.108053   
537.000000	5.342499   
537.500000	5.915719   
538.000000	6.208083   
538.500000	6.364954   
539.000000	6.390689   
539.500000	6.847962   
540.000000	7.424303   
540.500000	7.968522   
541.000000	8.332090   
541.500000	8.484515   
542.000000	8.548931   
542.500000	8.746689   
543.000000	9.157757   
543.500000	9.719492   
544.000000	10.052439  
544.500000	10.511219  
545.000000	10.820681  
545.500000	11.105553  
546.000000	10.651431  
546.500000	10.618598  
547.000000	10.832909  
547.500000	11.724780  
548.000000	11.995893  
548.500000	12.297098  
549.000000	12.278356  
549.500000	12.611969  
550.000000	12.795492  
550.500000	13.153939  
551.000000	13.482454  
551.500000	14.035856  
552.000000	14.406234  
552.500000	14.612962  
553.000000	14.554727  
553.500000	14.484946  
554.000000	14.065750  
554.500000	13.665924  
555.000000	13.613000  
555.500000	14.334454  
556.000000	14.984977  
556.500000	15.097037  
557.000000	14.743856  
557.500000	14.814575  
558.000000	15.257575  
558.500000	15.671560  
559.000000	15.774492  
559.500000	15.791280  
560.000000	15.851818  
560.500000	16.537621  
561.000000	17.186143  
561.500000	17.700583  
562.000000	17.598227  
562.500000	17.553818  
563.000000	17.693939  
563.500000	18.170992  
564.000000	18.301234  
564.500000	18.502515  
565.000000	19.037060  
565.500000	19.969962  
566.000000	20.651712  
566.500000	20.906492  
567.000000	21.024068  
567.500000	21.807537  
568.000000	22.835916  
568.500000	23.583962  
569.000000	23.734015  
569.500000	24.086363  
570.000000	24.702840  
570.500000	25.425924  
571.000000	25.984143  
571.500000	26.867833  
572.000000	27.996439  
572.500000	28.826000  
573.000000	29.404613  
573.500000	30.180772  
574.000000	30.905893  
574.500000	31.307143  
575.000000	31.763984  
575.500000	32.863265  
576.000000	33.966128  
576.500000	34.161424  
577.000000	33.930560  
577.500000	34.277174  
578.000000	35.291909  
578.500000	36.933128  
579.000000	38.500621  
579.500000	39.475909  
580.000000	39.312575  
580.500000	39.192242  
581.000000	39.720401  
581.500000	40.720977  
582.000000	41.442454  
582.500000	41.837446  
583.000000	42.599803  
583.500000	43.102136  
584.000000	43.558378  
584.500000	43.898871  
585.000000	45.276818  
585.500000	46.829901  
586.000000	48.226818  
586.500000	48.735560  
587.000000	48.918340  
587.500000	49.686886  
588.000000	51.114515  
588.500000	53.031060  
589.000000	54.763507  
589.500000	56.454363  
590.000000	57.876446  
590.500000	59.202636  
591.000000	60.041227  
591.500000	60.976757  
592.000000	62.233000  
592.500000	63.899219  
593.000000	65.210704  
593.500000	66.247371  
594.000000	67.378098  
594.500000	69.429219  
595.000000	71.741287  
595.500000	73.874242  
596.000000	75.109666  
596.500000	76.348257  
597.000000	78.148015  
597.500000	80.608242  
598.000000	82.170083  
598.500000	83.692439  
599.000000	85.243272  
599.500000	87.360674  
600.000000	88.410363  
600.500000	89.935803  
601.000000	91.829643  
601.500000	94.836674  
602.000000	97.066977  
602.500000	99.124212  
603.000000	100.839810 
603.500000	102.291500 
604.000000	103.783068 
604.500000	105.223416 
605.000000	106.433045 
605.500000	107.715818 
606.000000	109.887446 
606.500000	112.896371 
607.000000	115.504886 
607.500000	117.541757 
608.000000	119.307522 
608.500000	121.729136 
609.000000	124.106840 
609.500000	126.518757 
610.000000	128.496234 
610.500000	130.860015 
611.000000	133.191962 
611.500000	135.643734 
612.000000	137.929636 
612.500000	141.088939 
613.000000	145.001196 
613.500000	149.682325 
614.000000	153.612946 
614.500000	156.200068 
615.000000	157.743242 
615.500000	159.315333 
616.000000	161.530515 
616.500000	165.245598 
617.000000	169.563053 
617.500000	173.458689 
618.000000	176.162863 
618.500000	179.232780 
619.000000	182.799151 
619.500000	186.332280 
620.000000	189.823409 
620.500000	194.648780 
621.000000	200.399333 
621.500000	205.029234 
622.000000	207.902757 
622.500000	211.195825 
623.000000	215.782787 
623.500000	220.430613 
624.000000	223.106871 
624.500000	225.521643 
625.000000	229.080325 
625.500000	234.019674 
626.000000	239.529265 
626.500000	244.640901 
627.000000	248.835893 
627.500000	251.443431 
628.000000	255.093553 
628.500000	261.559901 
629.000000	269.716765 
629.500000	275.035068 
630.000000	278.704333 
630.500000	283.457409 
631.000000	289.834424 
631.500000	296.138924 
632.000000	301.080606 
632.500000	306.320931 
633.000000	313.016772 
633.500000	319.636969 
634.000000	323.967795 
634.500000	327.015530 
635.000000	330.480606 
635.500000	336.089204 
636.000000	343.616234 
636.500000	350.978318 
637.000000	357.721037 
637.500000	363.612810 
638.000000	368.373681 
638.500000	373.171992 
639.000000	378.812946 
639.500000	385.075916 
640.000000	389.804333 
640.500000	395.188772 
641.000000	400.742590 
641.500000	407.316378 
642.000000	411.617856 
642.500000	415.338674 
643.000000	419.097613 
643.500000	425.269227 
644.000000	431.034242 
644.500000	438.239916 
645.000000	445.084825 
645.500000	451.232636 
646.000000	455.118606 
646.500000	459.067636 
647.000000	464.694568 
647.500000	471.987803 
648.000000	476.550499 
648.500000	478.931772 
649.000000	480.914621 
649.500000	483.719439 
650.000000	487.848333 
650.500000	494.566893 
651.000000	500.866295 
651.500000	505.008265 
652.000000	506.615416 
652.500000	507.918833 
653.000000	510.158537 
653.500000	512.871893 
654.000000	517.876765 
654.500000	522.608439 
655.000000	525.543621 
655.500000	525.320553 
656.000000	525.988431 
656.500000	527.447795 
657.000000	529.569265 
657.500000	530.193287 
658.000000	530.729469 
658.500000	531.851901 
659.000000	532.685424 
659.500000	532.892090 
660.000000	534.233212 
660.500000	535.630166 
661.000000	535.587916 
661.500000	533.927621 
662.000000	534.115795 
662.500000	534.153318 
663.000000	531.607265 
663.500000	526.262318 
664.000000	522.513098 
664.500000	520.627386 
665.000000	518.266939 
665.500000	515.649363 
666.000000	513.576007 
666.500000	514.655128 
667.000000	514.693840 
667.500000	511.892712 
668.000000	505.236681 
668.500000	499.556401 
669.000000	495.749840 
669.500000	493.664143 
670.000000	490.386727 
670.500000	485.159962 
671.000000	479.360575 
671.500000	473.691325 
672.000000	469.997401 
672.500000	466.882954 
673.000000	462.398106 
673.500000	455.898053 
674.000000	449.092143 
674.500000	443.098833 
675.000000	438.188318 
675.500000	431.877356 
676.000000	424.462977 
676.500000	416.723000 
677.000000	410.503727 
677.500000	405.183030 
678.000000	399.370469 
678.500000	391.594196 
679.000000	383.900401 
679.500000	377.258863 
680.000000	369.971772 
680.500000	362.277113 
681.000000	354.873606 
681.500000	349.063212 
682.000000	343.399037 
682.500000	337.749000 
683.000000	332.567287 
683.500000	326.092560 
684.000000	316.824166 
684.500000	306.638287 
685.000000	299.007393 
685.500000	293.216553 
686.000000	287.215833 
686.500000	279.008159 
687.000000	270.609393 
687.500000	262.625257 
688.000000	255.537636 
688.500000	247.673272 
689.000000	240.799060 
689.500000	234.242757 
690.000000	229.191204 
690.500000	223.778303 
691.000000	218.686121 
691.500000	212.801234 
692.000000	207.143765 
692.500000	201.583106 
693.000000	196.285636 
693.500000	189.471840 
694.000000	182.088545 
694.500000	176.244272 
695.000000	172.476515 
695.500000	168.724219 
696.000000	163.366507 
696.500000	157.365227 
697.000000	151.745219 
697.500000	146.949363 
698.000000	142.472174 
698.500000	137.751409 
699.000000	132.594227 
699.500000	128.197666 
700.000000	125.063772 
700.500000	122.635121 
701.000000	119.327765 
701.500000	115.425143 
702.000000	111.791659 
702.500000	108.706931 
703.000000	105.650643 
703.500000	103.189303 
704.000000	100.362598 
704.500000	96.811628  
705.000000	92.847386  
705.500000	89.968515  
706.000000	87.791181  
706.500000	85.013166  
707.000000	81.976060  
707.500000	80.107666  
708.000000	79.185840  
708.500000	77.909749  
709.000000	75.769742  
709.500000	72.928727  
710.000000	70.283151  
710.500000	67.702787  
711.000000	65.552287  
711.500000	63.646174  
712.000000	62.390704  
712.500000	61.920666  
713.000000	61.173939  
713.500000	59.291575  
714.000000	56.584590  
714.500000	54.752553  
715.000000	54.246242  
715.500000	54.449053  
716.000000	53.934409  
716.500000	52.359507  
717.000000	50.210454  
717.500000	47.806106  
718.000000	45.784825  
718.500000	44.567454  
719.000000	43.953000  
719.500000	43.391954  
720.000000	42.509613  
720.500000	41.411340  
721.000000	39.819750  
721.500000	38.302136  
722.000000	37.062090  
722.500000	36.365333  
723.000000	36.009598  
723.500000	35.644863  
724.000000	35.393878  
724.500000	35.055939  
725.000000	34.579666  
725.500000	33.600356  
726.000000	32.435219  
726.500000	30.994537  
727.000000	29.961371  
727.500000	29.340727  
728.000000	29.481204  
728.500000	29.102469  
729.000000	28.179590  
729.500000	26.672090  
730.000000	26.135560  
730.500000	25.800310  
731.000000	25.079628  
731.500000	23.972045  
732.000000	23.412742  
732.500000	23.347280  
733.000000	23.263045  
733.500000	22.918287  
734.000000	22.497022  
734.500000	22.335893  
735.000000	22.132969  
735.500000	21.705409  
736.000000	21.239257  
736.500000	20.859893  
737.000000	20.528931  
737.500000	20.146477  
738.000000	19.753613  
738.500000	19.394931  
739.000000	18.678083  
739.500000	17.831954  
740.000000	17.328666  
740.500000	17.290106  
741.000000	17.101553  
741.500000	16.769954  
742.000000	16.629727  
742.500000	16.766166  
743.000000	16.738106  
743.500000	16.367469  
744.000000	15.837151  
744.500000	15.680212  
745.000000	15.412651  
745.500000	15.154090  
746.000000	14.434795  
746.500000	14.234795  
747.000000	13.924772  
747.500000	13.906750  
748.000000	13.379416  
748.500000	13.091045  
749.000000	12.706159  
749.500000	12.599037  
750.000000	12.651962  
750.500000	12.628742  
751.000000	12.746992  
751.500000	12.732969  
752.000000	12.852765  
752.500000	12.359431  
753.000000	11.854750  
753.500000	11.344583  
754.000000	11.294015  
754.500000	11.112606  
755.000000	11.060128  
755.500000	10.903386  
756.000000	10.788727  
756.500000	10.420628  
757.000000	10.193545  
757.500000	10.103068  
758.000000	10.320151  
758.500000	10.360166  
759.000000	10.338431  
759.500000	10.041280  
760.000000	9.858303   
760.500000	9.788128   
761.000000	9.757310   
761.500000	9.786280   
762.000000	9.753962   
762.500000	9.662984   
763.000000	9.234999   
763.500000	8.660416   
764.000000	8.112068   
764.500000	8.065356   
765.000000	8.093689   
765.500000	7.982659   
766.000000	7.758818   
766.500000	7.807310   
767.000000	7.995727   
767.500000	7.985719   
768.000000	7.672098   
768.500000	7.520462   
769.000000	7.512424   
769.500000	7.499719   
770.000000	7.378977   
770.500000	7.283954   
771.000000	7.166681   
771.500000	7.116522   
772.000000	7.083022   
772.500000	7.128212   
773.000000	7.000151   
773.500000	6.634598   
774.000000	6.082446   
774.500000	5.836666   
775.000000	5.993060   
775.500000	6.371772   
776.000000	6.343984   
776.500000	6.212962   
777.000000	6.129166   
777.500000	6.188174   
778.000000	5.861568   
778.500000	5.610325   
779.000000	5.517113   
779.500000	5.847810   
780.000000	5.933045   
780.500000	5.848598   
781.000000	5.541484   
781.500000	5.371659   
782.000000	5.163946   
782.500000	5.029007   
783.000000	4.957954   
783.500000	5.057840   
784.000000	5.098613   
784.500000	5.025037   
785.000000	4.919939   
785.500000	4.908719   
786.000000	4.870242   
786.500000	4.848257   
787.000000	4.815537   
787.500000	4.656348   
788.000000	4.379492   
788.500000	4.225704   
789.000000	4.535749   
789.500000	4.876515   
790.000000	4.938696   
790.500000	4.789530   
791.000000	4.721234   
791.500000	4.752439   
792.000000	4.475484   
792.500000	4.172704   
793.000000	3.975704   
793.500000	4.200090   
794.000000	4.256143   
794.500000	4.275749   
795.000000	4.051121   
795.500000	3.897250   
796.000000	3.622954   
796.500000	3.497272   
797.000000	3.585333   
797.500000	3.927136   
798.000000	4.220409   
798.500000	4.277840   
799.000000	4.015310   
799.500000	3.641371   
800.000000	3.381136   
800.500000	3.314015   
801.000000	3.372628   
801.500000	3.336856   
802.000000	3.242159   
802.500000	3.260249   
803.000000	3.512151   
803.500000	3.778545   
804.000000	3.706416   
804.500000	3.317068   
805.000000	3.085477   
805.500000	3.157590   
806.000000	3.283780   
806.500000	3.105893   
807.000000	2.918159   
807.500000	2.880795   
808.000000	2.990484   
808.500000	2.891628   
809.000000	2.780590   
809.500000	2.884734   
810.000000	3.095333   
810.500000	3.172962   
811.000000	3.108954   
811.500000	3.126696   
812.000000	3.091424   
812.500000	2.980030   
813.000000	2.857257   
813.500000	2.873628   
814.000000	2.875257   
814.500000	2.847151   
815.000000	2.801318   
815.500000	2.766977   
816.000000	2.727833   
816.500000	2.723484   
817.000000	2.822386   
817.500000	2.875946   
818.000000	2.896295   
818.500000	2.803454   
819.000000	2.758060   
819.500000	2.706522   
820.000000	2.858007   
820.500000	3.054053   
821.000000	3.164613   
821.500000	3.039553   
822.000000	2.851924   
822.500000	2.932340   
823.000000	3.229984   
823.500000	3.511098   
824.000000	3.586113   
824.500000	3.514204   
825.000000	3.395484   
825.500000	3.291765   
826.000000	3.326825   
826.500000	3.405287   
827.000000	3.391840   
827.500000	3.115901   
828.000000	2.873272   
828.500000	2.751121   
829.000000	2.796946   
829.500000	2.706015   
830.000000	2.581696   
830.500000	2.457939   
831.000000	2.411810   
831.500000	2.250454   
832.000000	2.010992   
832.500000	1.892628   
833.000000	1.942992   
833.500000	1.962651   
834.000000	1.725712   
834.500000	1.382227   
835.000000	1.178924   
835.500000	1.326128   
836.000000	1.633477   
836.500000	1.733212   
837.000000	1.583628   
837.500000	1.329636   
838.000000	1.217015   
838.500000	1.071310   
839.000000	0.975098   
839.500000	0.935333   
840.000000	1.117492   
840.500000	1.249962   
841.000000	1.219606   
841.500000	0.979469   
842.000000	0.830712   
842.500000	0.785893   
843.000000	0.795613   
843.500000	0.734462   
844.000000	0.730121   
844.500000	0.835749   
845.000000	0.904143   
845.500000	0.827749   
846.000000	0.756931   
846.500000	0.840863   
847.000000	0.913234   
847.500000	0.860840   
848.000000	0.754803   
848.500000	0.642333   
849.000000	0.545287   
849.500000	0.439053   
850.000000	0.478893   
850.500000	0.536196   
851.000000	0.574136   
851.500000	0.519765   
852.000000	0.549916   
852.500000	0.665681   
853.000000	0.701318   
853.500000	0.625136   
854.000000	0.375121   
854.500000	0.205537   
855.000000	0.160636   
855.500000	0.248151   
856.000000	0.284280   
856.500000	0.293000   
857.000000	0.347522   
857.500000	0.402477   
858.000000	0.386446   
858.500000	0.254765   
859.000000	0.211583   
859.500000	0.318795   
860.000000	0.469128   
860.500000	0.410075   
861.000000	0.246000   
861.500000	0.120590   
862.000000	0.117136   
862.500000	0.155477   
863.000000	0.260871   
863.500000	0.301295   
864.000000	0.221371   
864.500000	0.045424   
865.000000	-0.000916  
865.500000	0.141590   
866.000000	0.268462   
866.500000	0.211242   
867.000000	0.042098   
867.500000	-0.064439  
868.000000	-0.056795  
868.500000	0.035674   
869.000000	0.108727   
869.500000	0.119507   
870.000000	0.119545   
870.500000	0.047931   
871.000000	-0.039287  
871.500000	-0.192969  
872.000000	-0.242106  
872.500000	-0.225598  
873.000000	-0.071916  
873.500000	0.039901   
874.000000	0.105651   
874.500000	0.153401   
875.000000	0.271515   
875.500000	0.377871   
876.000000	0.324659   
876.500000	0.121628   
877.000000	-0.024962  
877.500000	-0.017666  
878.000000	0.029204   
878.500000	0.152242   
879.000000	0.281196   
879.500000	0.327666   
880.000000	0.200265   
880.500000	0.077106   
881.000000	0.011886   
881.500000	0.081545   
882.000000	0.092727   
882.500000	0.114037   
883.000000	0.151840   
883.500000	0.160787   
884.000000	0.138500   
884.500000	0.083219   
885.000000	0.032621   
885.500000	0.018454   
886.000000	0.120909   
886.500000	0.271772   
887.000000	0.414515   
887.500000	0.371969   
888.000000	0.248386   
888.500000	0.153818   
889.000000	0.147386   
889.500000	0.122590   
890.000000	0.051030   
890.500000	0.030659   
891.000000	0.050083   
891.500000	0.067795   
892.000000	-0.013825  
892.500000	-0.098143  
893.000000	-0.112659  
893.500000	-0.054371  
894.000000	0.059795   
894.500000	0.134106   
895.000000	0.192098   
895.500000	0.147878   
896.000000	0.093590   
896.500000	0.010666   
897.000000	-0.032128  
897.500000	-0.049234  
898.000000	-0.075583  
898.500000	-0.101181  
899.000000	-0.108613  
899.500000	-0.032757  
900.000000	0.049969   
900.500000	0.123000   

