PE FL                   SPECTRUM    ASCII       PEDS        1.60        
  -1
S09P.SP
24/04/05
12:22:39.00
24/04/05
12:24:02.00
Jan

900.500000
1









LS55
455.00
5.00
5.00
SCAN
1
20
100
100
0
400
0
1
0
1
5
ON
900 455 
1 0 0
#HDR
-1
-1
#GR
NM

0.00002384185791015625
0.0
460.000000
0.500000
882
8
145.317037
-0.630000
#DATA
460.000000	-0.630000  
460.500000	-0.117325  
461.000000	0.004628   
461.500000	-0.178371  
462.000000	-0.353621  
462.500000	-0.424537  
463.000000	-0.346015  
463.500000	-0.160628  
464.000000	0.008219   
464.500000	0.028287   
465.000000	-0.067977  
465.500000	-0.177606  
466.000000	-0.294037  
466.500000	-0.395606  
467.000000	-0.349007  
467.500000	-0.167606  
468.000000	0.010151   
468.500000	0.131022   
469.000000	0.215378   
469.500000	0.144068   
470.000000	-0.082469  
470.500000	-0.167227  
471.000000	-0.026553  
471.500000	0.151704   
472.000000	0.063030   
472.500000	-0.063287  
473.000000	-0.068613  
473.500000	0.057666   
474.000000	0.013522   
474.500000	-0.003901  
475.000000	0.016825   
475.500000	0.066128   
476.000000	-0.080962  
476.500000	-0.216181  
477.000000	-0.223545  
477.500000	-0.109909  
478.000000	-0.029659  
478.500000	-0.035643  
479.000000	0.010924   
479.500000	-0.014696  
480.000000	0.035015   
480.500000	0.051007   
481.000000	0.081469   
481.500000	-0.010992  
482.000000	-0.083000  
482.500000	-0.024356  
483.000000	0.032128   
483.500000	0.041757   
484.000000	-0.113946  
484.500000	-0.143810  
485.000000	-0.072462  
485.500000	0.141787   
486.000000	0.203166   
486.500000	0.115863   
487.000000	0.089098   
487.500000	0.235598   
488.000000	0.432045   
488.500000	0.357742   
489.000000	0.086954   
489.500000	-0.216712  
490.000000	-0.237803  
490.500000	0.018424   
491.000000	0.334340   
491.500000	0.365000   
492.000000	0.107719   
492.500000	-0.213780  
493.000000	-0.251886  
493.500000	-0.049848  
494.000000	0.267409   
494.500000	0.368825   
495.000000	0.376287   
495.500000	0.337507   
496.000000	0.415727   
496.500000	0.466060   
497.000000	0.445734   
497.500000	0.312848   
498.000000	0.174810   
498.500000	0.206750   
499.000000	0.337083   
499.500000	0.434242   
500.000000	0.419636   
500.500000	0.520734   
501.000000	0.624522   
501.500000	0.588515   
502.000000	0.337878   
502.500000	0.287954   
503.000000	0.473871   
503.500000	0.690037   
504.000000	0.622318   
504.500000	0.549643   
505.000000	0.618234   
505.500000	0.759659   
506.000000	0.692098   
506.500000	0.508212   
507.000000	0.426303   
507.500000	0.572969   
508.000000	0.764628   
508.500000	0.916560   
509.000000	0.919909   
509.500000	0.892621   
510.000000	0.902022   
510.500000	0.997037   
511.000000	1.027227   
511.500000	1.035295   
512.000000	0.987053   
512.500000	1.116136   
513.000000	1.274250   
513.500000	1.256886   
514.000000	1.116136   
514.500000	1.067916   
515.000000	1.156515   
515.500000	1.139939   
516.000000	1.113734   
516.500000	1.293742   
517.000000	1.693484   
517.500000	1.841522   
518.000000	1.765083   
518.500000	1.760143   
519.000000	1.899143   
519.500000	2.006303   
520.000000	1.912007   
520.500000	1.860772   
521.000000	1.877181   
521.500000	1.995674   
522.000000	1.981371   
522.500000	1.929174   
523.000000	1.766212   
523.500000	1.719166   
524.000000	1.684803   
524.500000	1.682606   
525.000000	1.701121   
525.500000	1.877939   
526.000000	2.127386   
526.500000	2.302128   
527.000000	2.263545   
527.500000	2.103590   
528.000000	1.903325   
528.500000	1.952742   
529.000000	2.086545   
529.500000	2.229871   
530.000000	2.173212   
530.500000	2.102280   
531.000000	2.088068   
531.500000	2.156696   
532.000000	2.284825   
532.500000	2.293212   
533.000000	2.292750   
533.500000	2.205265   
534.000000	2.286166   
534.500000	2.229568   
535.000000	2.210454   
535.500000	2.217219   
536.000000	2.518409   
536.500000	2.712681   
537.000000	2.720507   
537.500000	2.515969   
538.000000	2.555121   
538.500000	2.641053   
539.000000	2.858606   
539.500000	2.993113   
540.000000	3.149969   
540.500000	3.367712   
541.000000	3.787893   
541.500000	4.163022   
542.000000	4.209106   
542.500000	3.949507   
543.000000	3.787537   
543.500000	3.908795   
544.000000	3.937909   
544.500000	3.978424   
545.000000	4.100909   
545.500000	4.392053   
546.000000	4.613325   
546.500000	4.811113   
547.000000	4.960340   
547.500000	5.129924   
548.000000	5.348022   
548.500000	5.366416   
549.000000	5.386196   
549.500000	5.511401   
550.000000	6.053598   
550.500000	6.217348   
551.000000	6.047749   
551.500000	5.801227   
552.000000	6.103000   
552.500000	6.572090   
553.000000	6.799522   
553.500000	6.928265   
554.000000	7.166757   
554.500000	7.307750   
555.000000	7.479143   
555.500000	7.742500   
556.000000	8.111045   
556.500000	8.105143   
557.000000	7.896416   
557.500000	7.522871   
558.000000	7.681090   
558.500000	7.952318   
559.000000	8.206113   
559.500000	8.010537   
560.000000	7.591045   
560.500000	7.152492   
561.000000	7.269530   
561.500000	7.781439   
562.000000	8.314424   
562.500000	8.360037   
563.000000	8.111742   
563.500000	8.065833   
564.000000	8.486136   
564.500000	8.971734   
565.000000	9.218037   
565.500000	9.121499   
566.000000	8.782651   
566.500000	8.435719   
567.000000	8.367575   
567.500000	8.502363   
568.000000	8.685886   
568.500000	8.595727   
569.000000	8.438765   
569.500000	8.433015   
570.000000	8.683636   
570.500000	9.125227   
571.000000	9.580651   
571.500000	9.791037   
572.000000	9.523083   
572.500000	9.108083   
573.000000	9.071818   
573.500000	9.480386   
574.000000	10.007037  
574.500000	10.071143  
575.000000	9.991613   
575.500000	9.819121   
576.000000	10.067015  
576.500000	10.378075  
577.000000	10.884606  
577.500000	11.229250  
578.000000	11.318030  
578.500000	11.222378  
579.000000	11.358219  
579.500000	11.645484  
580.000000	11.544833  
580.500000	11.314893  
581.000000	11.219704  
581.500000	11.552863  
582.000000	11.983416  
582.500000	12.120537  
583.000000	12.075113  
583.500000	12.030515  
584.000000	12.322424  
584.500000	12.498333  
585.000000	12.648651  
585.500000	12.786234  
586.000000	13.276325  
586.500000	13.552265  
587.000000	13.754181  
587.500000	14.020757  
588.000000	14.175083  
588.500000	14.341022  
589.000000	14.894000  
589.500000	15.720303  
590.000000	16.218227  
590.500000	16.108333  
591.000000	15.881795  
591.500000	15.880696  
592.000000	15.999318  
592.500000	16.279628  
593.000000	16.644348  
593.500000	17.137969  
594.000000	17.360977  
594.500000	18.006333  
595.000000	18.476151  
595.500000	19.132659  
596.000000	19.413424  
596.500000	19.759500  
597.000000	20.068863  
597.500000	20.338931  
598.000000	20.495848  
598.500000	21.045666  
599.000000	22.023128  
599.500000	22.560636  
600.000000	22.499515  
600.500000	22.295553  
601.000000	22.654651  
601.500000	23.415030  
602.000000	24.106439  
602.500000	24.336340  
603.000000	24.586000  
603.500000	24.796280  
604.000000	25.513060  
604.500000	25.790219  
605.000000	26.225303  
605.500000	26.376174  
606.000000	27.194303  
606.500000	27.460250  
607.000000	27.729621  
607.500000	27.286363  
608.000000	26.856787  
608.500000	26.727651  
609.000000	27.336022  
609.500000	27.728545  
610.000000	27.284060  
610.500000	26.512810  
611.000000	25.968962  
611.500000	25.892060  
612.000000	25.933053  
612.500000	25.762734  
613.000000	25.321446  
613.500000	24.528643  
614.000000	24.169810  
614.500000	24.143477  
615.000000	23.971272  
615.500000	23.426037  
616.000000	23.314750  
616.500000	23.578166  
617.000000	23.649795  
617.500000	23.407212  
618.000000	23.129575  
618.500000	22.851583  
619.000000	22.273674  
619.500000	21.790371  
620.000000	22.337984  
620.500000	23.368719  
621.000000	24.227113  
621.500000	24.590696  
622.000000	25.170484  
622.500000	25.713750  
623.000000	26.204969  
623.500000	26.763121  
624.000000	27.563212  
624.500000	28.526606  
625.000000	29.069371  
625.500000	29.559037  
626.000000	29.808583  
626.500000	30.535371  
627.000000	31.160068  
627.500000	31.875075  
628.000000	32.104060  
628.500000	32.964318  
629.000000	33.847643  
629.500000	34.675053  
630.000000	34.770310  
630.500000	35.417234  
631.000000	36.562143  
631.500000	38.213371  
632.000000	39.309969  
632.500000	39.760416  
633.000000	39.762924  
633.500000	40.083371  
634.000000	41.283522  
634.500000	42.748295  
635.000000	43.949992  
635.500000	44.741833  
636.000000	45.820977  
636.500000	46.418939  
637.000000	46.762166  
637.500000	47.475371  
638.000000	49.055393  
638.500000	50.493159  
639.000000	51.824204  
639.500000	53.028053  
640.000000	54.659553  
640.500000	56.112643  
641.000000	57.455189  
641.500000	58.653878  
642.000000	59.492765  
642.500000	60.051356  
643.000000	60.624537  
643.500000	61.832999  
644.000000	63.997325  
644.500000	67.135037  
645.000000	69.773287  
645.500000	71.043674  
646.000000	71.167969  
646.500000	71.304878  
647.000000	72.164143  
647.500000	73.787462  
648.000000	76.091303  
648.500000	78.301825  
649.000000	79.978462  
649.500000	81.585537  
650.000000	83.227075  
650.500000	84.432068  
651.000000	85.522068  
651.500000	87.383204  
652.000000	90.077272  
652.500000	92.794613  
653.000000	94.537810  
653.500000	96.132090  
654.000000	98.188250  
654.500000	100.491037 
655.000000	102.066795 
655.500000	103.704189 
656.000000	105.346515 
656.500000	107.691659 
657.000000	110.215295 
657.500000	112.397356 
658.000000	113.787128 
658.500000	113.891136 
659.000000	113.566287 
659.500000	113.541750 
660.000000	114.869151 
660.500000	117.280053 
661.000000	121.063916 
661.500000	124.496530 
662.000000	126.650348 
662.500000	127.338636 
663.000000	127.981946 
663.500000	129.512393 
664.000000	131.639007 
664.500000	133.674053 
665.000000	134.620242 
665.500000	134.125871 
666.000000	133.182000 
666.500000	134.228356 
667.000000	137.480159 
667.500000	140.387500 
668.000000	140.666037 
668.500000	139.463734 
669.000000	138.905287 
669.500000	139.964878 
670.000000	141.795143 
670.500000	143.283416 
671.000000	143.362696 
671.500000	143.255742 
672.000000	143.450446 
672.500000	144.392037 
673.000000	144.528030 
673.500000	144.837636 
674.000000	145.317037 
674.500000	144.900045 
675.000000	143.150621 
675.500000	141.761765 
676.000000	142.040909 
676.500000	142.526348 
677.000000	141.567977 
677.500000	139.823303 
678.000000	139.628378 
678.500000	141.534507 
679.000000	142.693424 
679.500000	141.809181 
680.000000	138.534007 
680.500000	136.374545 
681.000000	135.601916 
681.500000	135.493151 
682.000000	133.805742 
682.500000	132.658734 
683.000000	131.848143 
683.500000	131.276113 
684.000000	129.205553 
684.500000	127.472818 
685.000000	125.868560 
685.500000	124.305318 
686.000000	121.734340 
686.500000	119.321280 
687.000000	117.268272 
687.500000	115.360363 
688.000000	114.903848 
688.500000	113.907166 
689.000000	112.089280 
689.500000	109.059295 
690.000000	107.950734 
690.500000	106.644333 
691.000000	104.892401 
691.500000	101.521295 
692.000000	99.705227  
692.500000	98.521984  
693.000000	97.444265  
693.500000	95.191560  
694.000000	92.309696  
694.500000	88.954469  
695.000000	87.014946  
695.500000	86.292825  
696.000000	85.754886  
696.500000	83.936962  
697.000000	81.469931  
697.500000	79.210863  
698.000000	77.165204  
698.500000	75.107045  
699.000000	73.385098  
699.500000	72.001946  
700.000000	70.289113  
700.500000	68.092166  
701.000000	66.283015  
701.500000	64.910598  
702.000000	63.855992  
702.500000	62.058689  
703.000000	60.255727  
703.500000	58.539212  
704.000000	57.512249  
704.500000	56.262810  
705.000000	54.557090  
705.500000	52.451515  
706.000000	50.522992  
706.500000	49.277560  
707.000000	48.370810  
707.500000	47.274560  
708.000000	45.991560  
708.500000	44.572053  
709.000000	43.473795  
709.500000	42.352469  
710.000000	41.433931  
710.500000	40.185833  
711.000000	39.272333  
711.500000	38.424795  
712.000000	37.768575  
712.500000	36.799257  
713.000000	35.912537  
713.500000	35.495750  
714.000000	35.290393  
714.500000	34.861939  
715.000000	34.178439  
715.500000	33.679628  
716.000000	32.666340  
716.500000	31.344257  
717.000000	29.830280  
717.500000	28.988674  
718.000000	28.539196  
718.500000	28.500143  
719.000000	28.055575  
719.500000	27.261143  
720.000000	26.043780  
720.500000	25.405515  
721.000000	25.179287  
721.500000	25.094825  
722.000000	24.554219  
722.500000	24.156356  
723.000000	23.589863  
723.500000	22.689045  
724.000000	21.483909  
724.500000	20.763015  
725.000000	20.503590  
725.500000	20.219636  
726.000000	19.712621  
726.500000	19.102651  
727.000000	18.755500  
727.500000	18.696537  
728.000000	18.962037  
728.500000	19.349212  
729.000000	19.113568  
729.500000	18.259992  
730.000000	17.372037  
730.500000	17.121856  
731.000000	17.408181  
731.500000	17.528734  
732.000000	16.956659  
732.500000	16.037681  
733.000000	15.553651  
733.500000	15.646833  
734.000000	15.876242  
734.500000	15.361174  
735.000000	14.601727  
735.500000	14.026227  
736.000000	13.780083  
736.500000	13.449083  
737.000000	13.334696  
737.500000	13.331477  
738.000000	13.587613  
738.500000	13.209659  
739.000000	12.415613  
739.500000	11.492075  
740.000000	11.361098  
740.500000	11.696856  
741.000000	12.052734  
741.500000	12.047939  
742.000000	11.950159  
742.500000	11.670560  
743.000000	11.355265  
743.500000	11.134371  
744.000000	11.040636  
744.500000	10.921303  
745.000000	10.721037  
745.500000	10.419234  
746.000000	9.911128   
746.500000	9.594333   
747.000000	9.550909   
747.500000	9.879174   
748.000000	9.794515   
748.500000	9.695272   
749.000000	9.389931   
749.500000	9.205492   
750.000000	8.875378   
750.500000	8.792750   
751.000000	8.620446   
751.500000	8.183719   
752.000000	7.758727   
752.500000	7.821151   
753.000000	8.149378   
753.500000	8.129363   
754.000000	7.688136   
754.500000	7.480613   
755.000000	7.654651   
755.500000	7.825856   
756.000000	7.735575   
756.500000	7.533204   
757.000000	7.404462   
757.500000	7.361287   
758.000000	7.352825   
758.500000	7.209901   
759.000000	7.042393   
759.500000	6.936939   
760.000000	7.047628   
760.500000	7.351719   
761.000000	7.444492   
761.500000	7.206310   
762.000000	6.760742   
762.500000	6.431621   
763.000000	6.337136   
763.500000	6.340113   
764.000000	6.385712   
764.500000	6.272477   
765.000000	6.288113   
765.500000	6.295886   
766.000000	6.501628   
766.500000	6.483568   
767.000000	6.318060   
767.500000	5.973325   
768.000000	5.594962   
768.500000	5.187909   
769.000000	5.031469   
769.500000	5.113939   
770.000000	5.096189   
770.500000	4.973522   
771.000000	5.008409   
771.500000	5.297628   
772.000000	5.494666   
772.500000	5.303727   
773.000000	4.976295   
773.500000	4.952295   
774.000000	5.116969   
774.500000	5.164628   
775.000000	4.858416   
775.500000	4.513121   
776.000000	4.328113   
776.500000	4.324984   
777.000000	4.276909   
777.500000	4.228856   
778.000000	4.190189   
778.500000	4.143393   
779.000000	4.038643   
779.500000	3.956946   
780.000000	4.029621   
780.500000	4.036863   
781.000000	3.922333   
781.500000	3.807848   
782.000000	3.916734   
782.500000	4.024045   
783.000000	4.106386   
783.500000	3.956575   
784.000000	4.027757   
784.500000	3.991143   
785.000000	4.084674   
785.500000	3.921204   
786.000000	3.822431   
786.500000	3.525500   
787.000000	3.468992   
787.500000	3.462772   
788.000000	3.628416   
788.500000	3.768765   
789.000000	3.808916   
789.500000	3.751924   
790.000000	3.526886   
790.500000	3.301939   
791.000000	3.092462   
791.500000	3.061727   
792.000000	3.060500   
792.500000	3.077901   
793.000000	3.059219   
793.500000	3.190939   
794.000000	3.425015   
794.500000	3.615795   
795.000000	3.507810   
795.500000	3.274840   
796.000000	3.061340   
796.500000	3.094522   
797.000000	3.116303   
797.500000	3.023401   
798.000000	2.807045   
798.500000	2.792522   
799.000000	2.934803   
799.500000	3.042992   
800.000000	3.030553   
800.500000	3.071280   
801.000000	3.183416   
801.500000	3.199386   
802.000000	3.071356   
802.500000	2.954318   
803.000000	2.925015   
803.500000	2.967030   
804.000000	3.051159   
804.500000	3.068287   
805.000000	2.972886   
805.500000	2.711007   
806.000000	2.612825   
806.500000	2.625439   
807.000000	2.842030   
807.500000	2.816121   
808.000000	2.646568   
808.500000	2.447174   
809.000000	2.541090   
809.500000	2.711121   
810.000000	2.780166   
810.500000	2.718848   
811.000000	2.703007   
811.500000	2.736136   
812.000000	2.720772   
812.500000	2.721393   
813.000000	2.733007   
813.500000	2.717348   
814.000000	2.679757   
814.500000	2.701863   
815.000000	2.660522   
815.500000	2.550272   
816.000000	2.389984   
816.500000	2.427159   
817.000000	2.580606   
817.500000	2.712977   
818.000000	2.726166   
818.500000	2.676606   
819.000000	2.549537   
819.500000	2.479840   
820.000000	2.550371   
820.500000	2.694424   
821.000000	2.800265   
821.500000	2.880409   
822.000000	2.936886   
822.500000	2.946750   
823.000000	2.939969   
823.500000	3.008916   
824.000000	3.111803   
824.500000	3.177242   
825.000000	3.118636   
825.500000	3.001909   
826.000000	2.748871   
826.500000	2.618522   
827.000000	2.591348   
827.500000	2.668553   
828.000000	2.709196   
828.500000	2.872734   
829.000000	2.940848   
829.500000	2.827590   
830.000000	2.620363   
830.500000	2.519583   
831.000000	2.488106   
831.500000	2.354499   
832.000000	2.242590   
832.500000	2.074431   
833.000000	1.924242   
833.500000	1.669272   
834.000000	1.699666   
834.500000	1.738446   
835.000000	1.852310   
835.500000	1.641818   
836.000000	1.397106   
836.500000	1.175265   
837.000000	1.341287   
837.500000	1.527098   
838.000000	1.493151   
838.500000	1.199477   
839.000000	0.954340   
839.500000	0.895250   
840.000000	0.872780   
840.500000	0.878977   
841.000000	0.782575   
841.500000	0.697121   
842.000000	0.637378   
842.500000	0.777863   
843.000000	0.938999   
843.500000	0.974840   
844.000000	0.843068   
844.500000	0.651537   
845.000000	0.583742   
845.500000	0.646643   
846.000000	0.783249   
846.500000	0.668840   
847.000000	0.516060   
847.500000	0.415537   
848.000000	0.546999   
848.500000	0.482750   
849.000000	0.259636   
849.500000	-0.085325  
850.000000	-0.051303  
850.500000	0.198045   
851.000000	0.518219   
851.500000	0.586083   
852.000000	0.540856   
852.500000	0.514325   
853.000000	0.525189   
853.500000	0.458545   
854.000000	0.330553   
854.500000	0.216106   
855.000000	0.202765   
855.500000	0.334295   
856.000000	0.495257   
856.500000	0.514363   
857.000000	0.384272   
857.500000	0.168159   
858.000000	0.092946   
858.500000	0.133083   
859.000000	0.207643   
859.500000	0.128022   
860.000000	0.062318   
860.500000	0.015022   
861.000000	0.060007   
861.500000	0.022325   
862.000000	0.017234   
862.500000	-0.000780  
863.000000	-0.066446  
863.500000	-0.172871  
864.000000	-0.145431  
864.500000	0.096931   
865.000000	0.210053   
865.500000	0.164984   
866.000000	-0.009151  
866.500000	-0.034469  
867.000000	-0.024515  
867.500000	0.035181   
868.000000	0.077727   
868.500000	0.045901   
869.000000	-0.128666  
869.500000	-0.337143  
870.000000	-0.331280  
870.500000	-0.192537  
871.000000	-0.054424  
871.500000	-0.057863  
872.000000	-0.071560  
872.500000	-0.062121  
873.000000	-0.022204  
873.500000	0.034507   
874.000000	0.018757   
874.500000	-0.006272  
875.000000	-0.087007  
875.500000	-0.140696  
876.000000	-0.106689  
876.500000	0.018393   
877.000000	0.043545   
877.500000	-0.107325  
878.000000	-0.282416  
878.500000	-0.261045  
879.000000	-0.086075  
879.500000	-0.019954  
880.000000	-0.092333  
880.500000	-0.199287  
881.000000	-0.249409  
881.500000	-0.189924  
882.000000	-0.160878  
882.500000	-0.185833  
883.000000	-0.266613  
883.500000	-0.301901  
884.000000	-0.217000  
884.500000	-0.068303  
885.000000	0.011446   
885.500000	0.052401   
886.000000	0.093886   
886.500000	0.091750   
887.000000	-0.060015  
887.500000	-0.245931  
888.000000	-0.307757  
888.500000	-0.215106  
889.000000	-0.096643  
889.500000	-0.059045  
890.000000	-0.071272  
890.500000	-0.116962  
891.000000	-0.136174  
891.500000	-0.135083  
892.000000	-0.087166  
892.500000	-0.064856  
893.000000	-0.085651  
893.500000	-0.090780  
894.000000	-0.057393  
894.500000	-0.014825  
895.000000	-0.044984  
895.500000	-0.096666  
896.000000	-0.070098  
896.500000	-0.033424  
897.000000	-0.040840  
897.500000	-0.084780  
898.000000	-0.110962  
898.500000	-0.070090  
899.000000	0.007643   
899.500000	0.040219   
900.000000	-0.166825  
900.500000	-0.627000  

