PE FL                   SPECTRUM    ASCII       PEDS        1.60        
  -1
S10P.SP
24/04/05
12:25:51.00
24/04/05
12:27:14.00
Jan

900.500000
1









LS55
455.00
5.00
5.00
SCAN
1
20
100
100
0
400
0
1
0
1
5
ON
900 455 
1 0 0
#HDR
-1
-1
#GR
NM

0.00002384185791015625
0.0
460.000000
0.500000
882
8
172.998106
-0.562515
#DATA
460.000000	0.630000   
460.500000	0.161848   
461.000000	-0.063848  
461.500000	-0.039515  
462.000000	0.053356   
462.500000	-0.045075  
463.000000	-0.324742  
463.500000	-0.562515  
464.000000	-0.455416  
464.500000	-0.210856  
465.000000	-0.005174  
465.500000	-0.000136  
466.000000	-0.027666  
466.500000	-0.095946  
467.000000	-0.077992  
467.500000	0.099893   
468.000000	0.305696   
468.500000	0.365477   
469.000000	0.223742   
469.500000	0.075946   
470.000000	0.082909   
470.500000	0.104795   
471.000000	0.070522   
471.500000	-0.101568  
472.000000	-0.107651  
472.500000	-0.015363  
473.000000	0.127492   
473.500000	0.047409   
474.000000	-0.001409  
474.500000	0.094598   
475.000000	0.286810   
475.500000	0.254068   
476.000000	0.041257   
476.500000	-0.066606  
477.000000	0.004325   
477.500000	0.086999   
478.000000	0.083219   
478.500000	0.051265   
479.000000	0.134303   
479.500000	0.208719   
480.000000	0.166234   
480.500000	-0.042507  
481.000000	-0.165484  
481.500000	-0.198848  
482.000000	-0.061007  
482.500000	-0.111689  
483.000000	-0.209719  
483.500000	-0.336219  
484.000000	-0.331454  
484.500000	-0.233750  
485.000000	-0.087492  
485.500000	0.005446   
486.000000	-0.024136  
486.500000	-0.034689  
487.000000	-0.090386  
487.500000	-0.008727  
488.000000	0.056257   
488.500000	0.157833   
489.000000	0.222871   
489.500000	0.321363   
490.000000	0.371863   
490.500000	0.388795   
491.000000	0.387606   
491.500000	0.373143   
492.000000	0.382787   
492.500000	0.323833   
493.000000	0.257234   
493.500000	0.137250   
494.000000	0.061174   
494.500000	-0.006840  
495.000000	-0.037371  
495.500000	0.026901   
496.000000	0.144181   
496.500000	0.319689   
497.000000	0.290174   
497.500000	0.213151   
498.000000	0.106507   
498.500000	0.102825   
499.000000	0.157643   
499.500000	0.298818   
500.000000	0.499469   
500.500000	0.552704   
501.000000	0.506128   
501.500000	0.429075   
502.000000	0.559272   
502.500000	0.674856   
503.000000	0.705431   
503.500000	0.641250   
504.000000	0.568954   
504.500000	0.516280   
505.000000	0.558704   
505.500000	0.672999   
506.000000	0.764356   
506.500000	0.587492   
507.000000	0.381045   
507.500000	0.370424   
508.000000	0.671136   
508.500000	0.818515   
509.000000	0.876242   
509.500000	0.823227   
510.000000	0.901946   
510.500000	0.829143   
511.000000	0.812310   
511.500000	0.835431   
512.000000	0.935181   
512.500000	0.856090   
513.000000	0.762325   
513.500000	0.850931   
514.000000	1.134515   
514.500000	1.344704   
515.000000	1.313962   
515.500000	1.203916   
516.000000	1.183628   
516.500000	1.229750   
517.000000	1.255068   
517.500000	1.208606   
518.000000	1.266121   
518.500000	1.201060   
519.000000	1.138704   
519.500000	1.119772   
520.000000	1.462704   
520.500000	1.791643   
521.000000	1.884219   
521.500000	1.553295   
522.000000	1.208143   
522.500000	1.207371   
523.000000	1.439734   
523.500000	1.663492   
524.000000	1.653371   
524.500000	1.668446   
525.000000	1.819606   
525.500000	2.025803   
526.000000	2.036583   
526.500000	1.910174   
527.000000	1.827946   
527.500000	1.879560   
528.000000	2.044037   
528.500000	2.133356   
529.000000	2.035499   
529.500000	1.839098   
530.000000	1.752674   
530.500000	1.813621   
531.000000	1.890765   
531.500000	1.992106   
532.000000	2.025462   
532.500000	2.047818   
533.000000	2.073340   
533.500000	2.224219   
534.000000	2.354022   
534.500000	2.418537   
535.000000	2.474750   
535.500000	2.649666   
536.000000	2.754484   
536.500000	2.588007   
537.000000	2.393795   
537.500000	2.337166   
538.000000	2.531704   
538.500000	2.748030   
539.000000	2.900477   
539.500000	2.913977   
540.000000	2.969893   
540.500000	2.974803   
541.000000	2.998560   
541.500000	3.091893   
542.000000	3.482969   
542.500000	3.792454   
543.000000	4.006598   
543.500000	4.059257   
544.000000	4.558628   
544.500000	4.873250   
545.000000	4.857742   
545.500000	4.308863   
546.000000	4.327151   
546.500000	4.840348   
547.000000	5.551462   
547.500000	5.623749   
548.000000	5.477901   
548.500000	5.427749   
549.000000	5.642174   
549.500000	5.791477   
550.000000	5.912446   
550.500000	6.089810   
551.000000	6.375424   
551.500000	6.495575   
552.000000	6.650742   
552.500000	6.812250   
553.000000	7.168810   
553.500000	7.382886   
554.000000	7.513568   
554.500000	7.349954   
555.000000	7.150492   
555.500000	7.227992   
556.000000	7.693674   
556.500000	8.274825   
557.000000	8.501848   
557.500000	8.419727   
558.000000	8.208598   
558.500000	8.158939   
559.000000	8.206249   
559.500000	8.088060   
560.000000	8.031234   
560.500000	8.136492   
561.000000	8.417886   
561.500000	8.323098   
562.000000	8.076674   
562.500000	8.039234   
563.000000	8.407924   
563.500000	8.691818   
564.000000	8.792136   
564.500000	8.759727   
565.000000	8.753840   
565.500000	8.748507   
566.000000	8.815833   
566.500000	8.666128   
567.000000	8.518098   
567.500000	8.533083   
568.000000	8.783113   
568.500000	8.980363   
569.000000	9.129439   
569.500000	9.338901   
570.000000	9.316265   
570.500000	9.134212   
571.000000	9.054772   
571.500000	9.425393   
572.000000	9.646795   
572.500000	9.698310   
573.000000	9.726106   
573.500000	9.968196   
574.000000	10.049083  
574.500000	10.016212  
575.000000	9.955575   
575.500000	9.883287   
576.000000	9.779727   
576.500000	9.807113   
577.000000	10.080075  
577.500000	10.426454  
578.000000	10.640272  
578.500000	10.532015  
579.000000	10.303863  
579.500000	10.261780  
580.000000	11.008674  
580.500000	11.877356  
581.000000	12.451280  
581.500000	12.401886  
582.000000	12.355803  
582.500000	12.128265  
583.000000	12.005053  
583.500000	12.035143  
584.000000	12.437477  
584.500000	12.769606  
585.000000	13.002977  
585.500000	13.342166  
586.000000	13.726257  
586.500000	14.176810  
587.000000	14.360674  
587.500000	14.484545  
588.000000	14.302621  
588.500000	14.094242  
589.000000	13.985992  
589.500000	14.443393  
590.000000	15.302977  
590.500000	15.985257  
591.000000	16.328484  
591.500000	16.240007  
592.000000	16.547386  
592.500000	16.739136  
593.000000	17.275939  
593.500000	17.474636  
594.000000	18.076795  
594.500000	18.415545  
595.000000	18.792696  
595.500000	18.789181  
596.000000	19.004750  
596.500000	19.387553  
597.000000	20.064727  
597.500000	20.492780  
598.000000	20.980113  
598.500000	21.455378  
599.000000	21.803545  
599.500000	21.722825  
600.000000	21.737886  
600.500000	22.119780  
601.000000	22.973833  
601.500000	23.590704  
602.000000	23.944166  
602.500000	24.094340  
603.000000	24.490106  
603.500000	24.830000  
604.000000	25.154734  
604.500000	25.397143  
605.000000	25.949318  
605.500000	26.394537  
606.000000	26.630196  
606.500000	26.413537  
607.000000	26.272348  
607.500000	26.217022  
608.000000	26.276613  
608.500000	26.467719  
609.000000	26.829810  
609.500000	27.028340  
610.000000	26.687068  
610.500000	26.356901  
611.000000	26.669515  
611.500000	27.422840  
612.000000	27.288030  
612.500000	26.206553  
613.000000	25.144098  
613.500000	25.249212  
614.000000	25.332704  
614.500000	24.995159  
615.000000	24.178848  
615.500000	24.141886  
616.000000	24.174984  
616.500000	24.224325  
617.000000	23.981871  
617.500000	24.740863  
618.000000	25.623757  
618.500000	26.512212  
619.000000	26.827121  
619.500000	26.888666  
620.000000	26.627204  
620.500000	26.729166  
621.000000	26.727727  
621.500000	27.003560  
622.000000	27.285227  
622.500000	28.638833  
623.000000	30.231242  
623.500000	31.368265  
624.000000	31.265825  
624.500000	31.520825  
625.000000	31.985962  
625.500000	32.607992  
626.000000	32.644431  
626.500000	33.274295  
627.000000	34.235060  
627.500000	35.476446  
628.000000	35.942810  
628.500000	36.845371  
629.000000	37.861954  
629.500000	38.991795  
630.000000	39.780242  
630.500000	40.517871  
631.000000	41.135878  
631.500000	41.740659  
632.000000	42.921196  
632.500000	44.024984  
633.000000	45.185136  
633.500000	45.977227  
634.000000	47.036212  
634.500000	47.990280  
635.000000	48.933651  
635.500000	49.701840  
636.000000	50.615045  
636.500000	51.510469  
637.000000	52.657409  
637.500000	53.691075  
638.000000	54.769537  
638.500000	55.869166  
639.000000	57.576378  
639.500000	59.452128  
640.000000	61.432984  
640.500000	62.962333  
641.000000	64.277075  
641.500000	65.217416  
642.000000	66.301098  
642.500000	67.821992  
643.000000	69.460772  
643.500000	70.884090  
644.000000	71.563606  
644.500000	72.513568  
645.000000	74.284454  
645.500000	76.556727  
646.000000	78.410045  
646.500000	80.024803  
647.000000	82.094492  
647.500000	84.237795  
648.000000	86.724484  
648.500000	88.903007  
649.000000	91.229128  
649.500000	92.568075  
650.000000	93.151121  
650.500000	94.449659  
651.000000	96.812272  
651.500000	99.318787  
652.000000	100.521500 
652.500000	102.194590 
653.000000	104.560969 
653.500000	107.630704 
654.000000	109.442143 
654.500000	111.099386 
655.000000	111.994310 
655.500000	113.530530 
656.000000	116.049545 
656.500000	120.093477 
657.000000	123.235196 
657.500000	124.542151 
658.000000	124.946712 
658.500000	126.082553 
659.000000	128.349537 
659.500000	130.394075 
660.000000	133.116242 
660.500000	135.639696 
661.000000	137.850704 
661.500000	139.058734 
662.000000	139.842446 
662.500000	141.945250 
663.000000	144.811621 
663.500000	147.985242 
664.000000	149.874037 
664.500000	151.814901 
665.000000	153.176325 
665.500000	155.617931 
666.000000	157.600462 
666.500000	158.644772 
667.000000	158.682765 
667.500000	160.268227 
668.000000	163.333901 
668.500000	164.676000 
669.000000	163.665787 
669.500000	163.226204 
670.000000	164.971204 
670.500000	166.834378 
671.000000	167.809090 
671.500000	168.915219 
672.000000	169.942174 
672.500000	170.228613 
673.000000	169.751454 
673.500000	170.634075 
674.000000	170.909772 
674.500000	171.889037 
675.000000	172.131522 
675.500000	172.998106 
676.000000	172.712856 
676.500000	172.484537 
677.000000	171.787363 
677.500000	171.407659 
678.000000	170.557530 
678.500000	169.172954 
679.000000	168.885871 
679.500000	168.734234 
680.000000	168.680295 
680.500000	166.638666 
681.000000	164.734772 
681.500000	163.092757 
682.000000	162.420075 
682.500000	160.976075 
683.000000	159.616757 
683.500000	158.039257 
684.000000	156.370446 
684.500000	154.752560 
685.000000	153.663871 
685.500000	152.579340 
686.000000	150.811409 
686.500000	147.186719 
687.000000	143.079287 
687.500000	140.312795 
688.000000	140.298924 
688.500000	140.351272 
689.000000	139.249628 
689.500000	135.850606 
690.000000	132.449219 
690.500000	128.636265 
691.000000	124.928174 
691.500000	121.214416 
692.000000	118.977431 
692.500000	118.036613 
693.000000	117.404772 
693.500000	115.017734 
694.000000	110.989424 
694.500000	107.544151 
695.000000	105.293992 
695.500000	103.276757 
696.000000	100.216454 
696.500000	97.485704  
697.000000	95.046666  
697.500000	92.743098  
698.000000	89.919886  
698.500000	87.741772  
699.000000	86.007431  
699.500000	84.100265  
700.000000	81.582803  
700.500000	78.975189  
701.000000	76.134098  
701.500000	73.040053  
702.000000	70.075931  
702.500000	67.721136  
703.000000	65.635765  
703.500000	64.117265  
704.000000	62.990992  
704.500000	62.162666  
705.000000	61.304734  
705.500000	60.219696  
706.000000	59.095833  
706.500000	57.265674  
707.000000	55.529553  
707.500000	53.602022  
708.000000	52.536969  
708.500000	51.035719  
709.000000	49.616280  
709.500000	47.544772  
710.000000	46.244946  
710.500000	44.852424  
711.000000	43.749348  
711.500000	42.521234  
712.000000	41.727666  
712.500000	41.507583  
713.000000	41.062795  
713.500000	40.132083  
714.000000	38.407083  
714.500000	37.087696  
715.000000	35.476969  
715.500000	34.447696  
716.000000	33.132765  
716.500000	32.557893  
717.000000	31.938954  
717.500000	31.460916  
718.000000	30.527780  
718.500000	29.927984  
719.000000	28.931030  
719.500000	27.711227  
720.000000	26.582477  
720.500000	26.281454  
721.000000	26.376196  
721.500000	25.954696  
722.000000	25.101000  
722.500000	24.514053  
723.000000	24.320537  
723.500000	24.009742  
724.000000	23.336590  
724.500000	22.334636  
725.000000	21.378477  
725.500000	20.705219  
726.000000	20.333772  
726.500000	19.891659  
727.000000	19.303030  
727.500000	18.798151  
728.000000	18.575348  
728.500000	18.127613  
729.000000	17.649022  
729.500000	17.332704  
730.000000	17.318083  
730.500000	17.264500  
731.000000	16.849454  
731.500000	16.035666  
732.000000	15.407128  
732.500000	15.534606  
733.000000	16.049454  
733.500000	16.293772  
734.000000	15.867121  
734.500000	15.349886  
735.000000	14.603765  
735.500000	13.857204  
736.000000	13.365015  
736.500000	13.425272  
737.000000	13.492310  
737.500000	13.392007  
738.000000	13.382606  
738.500000	13.423143  
739.000000	13.132234  
739.500000	12.490727  
740.000000	11.987507  
740.500000	11.672393  
741.000000	11.453325  
741.500000	11.261098  
742.000000	11.097545  
742.500000	10.706537  
743.000000	10.188333  
743.500000	9.781704   
744.000000	9.762401   
744.500000	9.806098   
745.000000	9.906893   
745.500000	10.030204  
746.000000	10.032287  
746.500000	9.906886   
747.000000	9.523863   
747.500000	9.160015   
748.000000	9.180454   
748.500000	9.414287   
749.000000	9.549734   
749.500000	9.104015   
750.000000	8.761825   
750.500000	8.455681   
751.000000	8.482507   
751.500000	8.175090   
752.000000	8.240272   
752.500000	8.204606   
753.000000	8.217257   
753.500000	7.931878   
754.000000	7.749340   
754.500000	7.422689   
755.000000	7.178090   
755.500000	7.057318   
756.000000	7.205272   
756.500000	7.252719   
757.000000	7.023083   
757.500000	6.777431   
758.000000	6.768856   
758.500000	6.884659   
759.000000	6.972037   
759.500000	7.043537   
760.000000	7.116606   
760.500000	6.908742   
761.000000	6.651257   
761.500000	6.500416   
762.000000	6.710484   
762.500000	6.667037   
763.000000	6.508462   
763.500000	6.418530   
764.000000	6.618977   
764.500000	6.459962   
765.000000	6.133553   
765.500000	5.872840   
766.000000	6.256469   
766.500000	6.391204   
767.000000	6.184999   
767.500000	5.677045   
768.000000	5.634659   
768.500000	5.618454   
769.000000	5.490507   
769.500000	5.190378   
770.000000	5.043803   
770.500000	5.092969   
771.000000	5.235651   
771.500000	5.190181   
772.000000	4.808060   
772.500000	4.623196   
773.000000	4.973787   
773.500000	5.405848   
774.000000	5.301992   
774.500000	4.718068   
775.000000	4.358469   
775.500000	4.315909   
776.000000	4.386909   
776.500000	4.423772   
777.000000	4.416969   
777.500000	4.250780   
778.000000	4.091962   
778.500000	4.085416   
779.000000	4.229280   
779.500000	4.348734   
780.000000	4.294348   
780.500000	4.254121   
781.000000	4.176098   
781.500000	4.147765   
782.000000	3.984742   
782.500000	3.848818   
783.000000	3.802363   
783.500000	4.045318   
784.000000	4.189522   
784.500000	4.224560   
785.000000	4.127575   
785.500000	4.097227   
786.000000	4.074340   
786.500000	3.882628   
787.000000	3.591439   
787.500000	3.372795   
788.000000	3.335795   
788.500000	3.291871   
789.000000	3.210143   
789.500000	3.183984   
790.000000	3.476000   
790.500000	3.859696   
791.000000	3.861590   
791.500000	3.560719   
792.000000	3.294318   
792.500000	3.140833   
793.000000	3.046553   
793.500000	3.019174   
794.000000	3.194000   
794.500000	3.286295   
795.000000	3.298325   
795.500000	3.156507   
796.000000	3.216257   
796.500000	3.116901   
797.000000	3.187287   
797.500000	3.135628   
798.000000	3.095287   
798.500000	2.857340   
799.000000	2.804310   
799.500000	2.830249   
800.000000	2.941515   
800.500000	2.943295   
801.000000	2.943659   
801.500000	2.916833   
802.000000	2.890113   
802.500000	2.866742   
803.000000	2.824477   
803.500000	2.708901   
804.000000	2.677553   
804.500000	2.794068   
805.000000	2.913098   
805.500000	2.846954   
806.000000	2.682621   
806.500000	2.655257   
807.000000	2.723212   
807.500000	2.781204   
808.000000	2.727333   
808.500000	2.769977   
809.000000	2.753037   
809.500000	2.715560   
810.000000	2.601386   
810.500000	2.645340   
811.000000	2.670174   
811.500000	2.618553   
812.000000	2.471984   
812.500000	2.454954   
813.000000	2.546522   
813.500000	2.602000   
814.000000	2.695477   
814.500000	2.667871   
815.000000	2.622106   
815.500000	2.501871   
816.000000	2.581151   
816.500000	2.695098   
817.000000	2.819068   
817.500000	2.686454   
818.000000	2.584560   
818.500000	2.489340   
819.000000	2.551272   
819.500000	2.652007   
820.000000	2.690265   
820.500000	2.743803   
821.000000	2.847113   
821.500000	3.027484   
822.000000	3.051242   
822.500000	3.144068   
823.000000	3.194128   
823.500000	3.222439   
824.000000	3.145083   
824.500000	3.224143   
825.000000	3.420734   
825.500000	3.408371   
826.000000	3.128257   
826.500000	2.918674   
827.000000	2.997666   
827.500000	3.101886   
828.000000	2.997454   
828.500000	2.771378   
829.000000	2.626333   
829.500000	2.496848   
830.000000	2.413689   
830.500000	2.335030   
831.000000	2.402780   
831.500000	2.346666   
832.000000	2.196545   
832.500000	2.056810   
833.000000	2.058439   
833.500000	2.104189   
834.000000	2.047356   
834.500000	1.803287   
835.000000	1.437424   
835.500000	1.230136   
836.000000	1.336848   
836.500000	1.515992   
837.000000	1.497393   
837.500000	1.221787   
838.000000	1.031931   
838.500000	1.009909   
839.000000	1.109878   
839.500000	1.204030   
840.000000	1.212946   
840.500000	1.171053   
841.000000	1.090083   
841.500000	1.010340   
842.000000	0.943075   
842.500000	0.878409   
843.000000	0.848598   
843.500000	0.810053   
844.000000	0.753522   
844.500000	0.709143   
845.000000	0.726363   
845.500000	0.797901   
846.000000	0.826643   
846.500000	0.761537   
847.000000	0.659189   
847.500000	0.629848   
848.000000	0.640151   
848.500000	0.589249   
849.000000	0.602068   
849.500000	0.636378   
850.000000	0.689598   
850.500000	0.558712   
851.000000	0.330871   
851.500000	0.126583   
852.000000	0.112484   
852.500000	0.265439   
853.000000	0.462106   
853.500000	0.509984   
854.000000	0.274401   
854.500000	0.096159   
855.000000	0.110719   
855.500000	0.302363   
856.000000	0.246803   
856.500000	-0.037734  
857.000000	-0.249583  
857.500000	-0.132939  
858.000000	0.077250   
858.500000	0.172462   
859.000000	0.157621   
859.500000	0.111954   
860.000000	0.035371   
860.500000	-0.076113  
861.000000	-0.056719  
861.500000	0.100166   
862.000000	0.209833   
862.500000	0.216227   
863.000000	0.238530   
863.500000	0.306787   
864.000000	0.342378   
864.500000	0.188984   
865.000000	0.030522   
865.500000	-0.063621  
866.000000	-0.099810  
866.500000	-0.124689  
867.000000	-0.138386  
867.500000	-0.042734  
868.000000	0.101909   
868.500000	0.174901   
869.000000	0.090196   
869.500000	0.009371   
870.000000	-0.016856  
870.500000	0.056583   
871.000000	0.117803   
871.500000	0.137174   
872.000000	0.119621   
872.500000	0.123393   
873.000000	0.088765   
873.500000	0.081060   
874.000000	0.056075   
874.500000	0.073174   
875.000000	0.032348   
875.500000	-0.016439  
876.000000	-0.057378  
876.500000	-0.030613  
877.000000	0.039984   
877.500000	0.053522   
878.000000	-0.014409  
878.500000	-0.119568  
879.000000	-0.207507  
879.500000	-0.235893  
880.000000	-0.229022  
880.500000	-0.174704  
881.000000	-0.054204  
881.500000	0.079606   
882.000000	0.108484   
882.500000	0.016454   
883.000000	-0.087106  
883.500000	-0.097803  
884.000000	-0.046272  
884.500000	-0.077924  
885.000000	-0.137719  
885.500000	-0.140492  
886.000000	-0.002916  
886.500000	0.009742   
887.000000	-0.063848  
887.500000	-0.168431  
888.000000	-0.054492  
888.500000	0.014159   
889.000000	-0.022681  
889.500000	-0.187371  
890.000000	-0.216075  
890.500000	-0.170318  
891.000000	-0.157189  
891.500000	-0.204818  
892.000000	-0.200378  
892.500000	-0.141469  
893.000000	-0.077378  
893.500000	-0.065090  
894.000000	-0.034333  
894.500000	-0.056742  
895.000000	-0.088674  
895.500000	-0.135780  
896.000000	-0.094340  
896.500000	-0.012916  
897.000000	0.007825   
897.500000	-0.057151  
898.000000	-0.123113  
898.500000	-0.112045  
899.000000	-0.055522  
899.500000	0.046916   
900.000000	0.175075   
900.500000	0.364999   

