PE FL                   SPECTRUM    ASCII       PEDS        1.60        
  -1
S14P.SP
24/04/05
12:38:39.00
24/04/05
12:40:02.00
Jan

900.500000
1









LS55
455.00
5.00
5.00
SCAN
1
20
100
100
0
400
0
1
0
1
5
ON
900 455 
1 0 0
#HDR
-1
-1
#GR
NM

0.00002384185791015625
0.0
460.000000
0.500000
882
8
233.930727
-0.513000
#DATA
460.000000	0.359999   
460.500000	-0.077386  
461.000000	-0.292537  
461.500000	-0.288613  
462.000000	-0.161068  
462.500000	-0.136500  
463.000000	-0.189037  
463.500000	-0.236500  
464.000000	-0.092128  
464.500000	0.159689   
465.000000	0.240712   
465.500000	0.122469   
466.000000	-0.078825  
466.500000	-0.306174  
467.000000	-0.470674  
467.500000	-0.424037  
468.000000	-0.076924  
468.500000	0.151840   
469.000000	0.216356   
469.500000	0.023659   
470.000000	0.033143   
470.500000	0.150962   
471.000000	0.335151   
471.500000	0.211598   
472.000000	-0.000500  
472.500000	-0.125143  
473.000000	0.064098   
473.500000	0.245462   
474.000000	0.225242   
474.500000	0.051007   
475.000000	0.005749   
475.500000	0.045742   
476.000000	0.085810   
476.500000	-0.013431  
477.000000	-0.156606  
477.500000	-0.186234  
478.000000	-0.044227  
478.500000	0.069424   
479.000000	-0.056765  
479.500000	-0.300431  
480.000000	-0.342053  
480.500000	-0.161871  
481.000000	-0.038454  
481.500000	-0.108098  
482.000000	-0.160484  
482.500000	-0.096659  
483.000000	0.035507   
483.500000	0.087075   
484.000000	0.103893   
484.500000	0.048969   
485.000000	0.045409   
485.500000	0.015128   
486.000000	0.015530   
486.500000	-0.023803  
487.000000	-0.050287  
487.500000	-0.144939  
488.000000	-0.212507  
488.500000	-0.240424  
489.000000	-0.048053  
489.500000	0.199727   
490.000000	0.365272   
490.500000	0.411992   
491.000000	0.397159   
491.500000	0.265477   
492.000000	0.040606   
492.500000	-0.069083  
493.000000	-0.039681  
493.500000	0.046189   
494.000000	-0.026977  
494.500000	-0.122318  
495.000000	-0.069265  
495.500000	0.069984   
496.000000	0.160090   
496.500000	0.156871   
497.000000	0.209621   
497.500000	0.252803   
498.000000	0.347113   
498.500000	0.310681   
499.000000	0.387409   
499.500000	0.527083   
500.000000	0.771674   
500.500000	0.773386   
501.000000	0.634401   
501.500000	0.436424   
502.000000	0.480356   
502.500000	0.757007   
503.000000	0.962159   
503.500000	1.060931   
504.000000	0.969045   
504.500000	0.896174   
505.000000	0.950984   
505.500000	1.224871   
506.000000	1.493477   
506.500000	1.602689   
507.000000	1.567553   
507.500000	1.554356   
508.000000	1.832477   
508.500000	2.085431   
509.000000	2.221916   
509.500000	2.181689   
510.000000	2.208507   
510.500000	2.365575   
511.000000	2.595409   
511.500000	2.716181   
512.000000	2.774787   
512.500000	2.693234   
513.000000	2.640901   
513.500000	2.703045   
514.000000	2.942734   
514.500000	3.087749   
515.000000	3.229840   
515.500000	3.251363   
516.000000	3.214416   
516.500000	3.053810   
517.000000	2.998909   
517.500000	3.092742   
518.000000	3.153818   
518.500000	3.317924   
519.000000	3.458901   
519.500000	3.583749   
520.000000	3.437386   
520.500000	3.281810   
521.000000	3.157515   
521.500000	3.343598   
522.000000	3.645371   
522.500000	3.707954   
523.000000	3.501151   
523.500000	3.254075   
524.000000	3.423606   
524.500000	3.554878   
525.000000	3.517856   
525.500000	3.287431   
526.000000	3.376189   
526.500000	3.480757   
527.000000	3.573159   
527.500000	3.531833   
528.000000	3.553386   
528.500000	3.756174   
529.000000	3.926598   
529.500000	3.848893   
530.000000	3.508924   
530.500000	3.319810   
531.000000	3.339174   
531.500000	3.384924   
532.000000	3.320924   
532.500000	3.367598   
533.000000	3.604803   
533.500000	3.673621   
534.000000	3.447151   
534.500000	3.005310   
535.000000	2.885227   
535.500000	2.936030   
536.000000	3.078962   
536.500000	3.038174   
537.000000	3.283575   
537.500000	3.595363   
538.000000	3.989924   
538.500000	3.879954   
539.000000	3.605469   
539.500000	3.273454   
540.000000	3.362712   
540.500000	3.663234   
541.000000	3.967962   
541.500000	3.884242   
542.000000	3.638393   
542.500000	3.644287   
543.000000	3.840340   
543.500000	3.946454   
544.000000	3.792204   
544.500000	3.806295   
545.000000	3.931977   
545.500000	4.107204   
546.000000	4.087984   
546.500000	4.160348   
547.000000	4.296992   
547.500000	4.467136   
548.000000	4.474492   
548.500000	4.431007   
549.000000	4.344651   
549.500000	4.313189   
550.000000	4.152295   
550.500000	4.215734   
551.000000	4.334446   
551.500000	4.561469   
552.000000	4.413318   
552.500000	4.190522   
553.000000	4.074696   
553.500000	4.407007   
554.000000	4.682310   
554.500000	4.873666   
555.000000	4.814287   
555.500000	4.796909   
556.000000	4.739000   
556.500000	4.796560   
557.000000	4.677409   
557.500000	4.654598   
558.000000	4.758340   
558.500000	4.976909   
559.000000	4.999590   
559.500000	4.724030   
560.000000	4.686424   
560.500000	4.965537   
561.000000	5.243037   
561.500000	5.150606   
562.000000	4.981606   
562.500000	4.843166   
563.000000	4.989227   
563.500000	5.109136   
564.000000	5.120871   
564.500000	4.863530   
565.000000	4.685750   
565.500000	4.624318   
566.000000	4.796719   
566.500000	4.835287   
567.000000	4.907401   
567.500000	4.927060   
568.000000	4.987401   
568.500000	4.911030   
569.000000	4.829189   
569.500000	4.748681   
570.000000	4.911909   
570.500000	5.120984   
571.000000	5.315348   
571.500000	5.446219   
572.000000	5.507871   
572.500000	5.638219   
573.000000	5.576803   
573.500000	5.367696   
574.000000	5.086590   
574.500000	5.216954   
575.000000	5.416348   
575.500000	5.393803   
576.000000	5.010537   
576.500000	4.768750   
577.000000	4.931780   
577.500000	5.166280   
578.000000	5.177037   
578.500000	5.033053   
579.000000	4.958613   
579.500000	4.945363   
580.000000	5.053196   
580.500000	5.194257   
581.000000	5.257401   
581.500000	5.109022   
582.000000	4.954159   
582.500000	4.812015   
583.000000	4.745795   
583.500000	4.628909   
584.000000	4.753378   
584.500000	5.172719   
585.000000	5.580825   
585.500000	5.740136   
586.000000	5.655674   
586.500000	5.530840   
587.000000	5.466545   
587.500000	5.702409   
588.000000	5.908053   
588.500000	6.349234   
589.000000	6.608742   
589.500000	6.630871   
590.000000	6.375795   
590.500000	6.164598   
591.000000	6.118121   
591.500000	6.232303   
592.000000	6.493431   
592.500000	6.696439   
593.000000	6.795507   
593.500000	6.584757   
594.000000	6.379439   
594.500000	6.666681   
595.000000	7.183348   
595.500000	7.432537   
596.000000	7.090628   
596.500000	6.878424   
597.000000	7.044439   
597.500000	7.478530   
598.000000	7.557734   
598.500000	7.528363   
599.000000	7.428666   
599.500000	7.267340   
600.000000	7.000212   
600.500000	7.012863   
601.000000	7.231143   
601.500000	7.703227   
602.000000	8.118924   
602.500000	8.520984   
603.000000	8.725803   
603.500000	8.738340   
604.000000	8.657689   
604.500000	8.951689   
605.000000	9.263492   
605.500000	9.403651   
606.000000	9.196196   
606.500000	9.112325   
607.000000	9.185469   
607.500000	9.539840   
608.000000	9.860545   
608.500000	10.183598  
609.000000	10.120007  
609.500000	9.887507   
610.000000	9.785530   
610.500000	9.929545   
611.000000	10.160022  
611.500000	10.226492  
612.000000	10.088393  
612.500000	9.796083   
613.000000	9.699090   
613.500000	9.715000   
614.000000	9.861969   
614.500000	9.808992   
615.000000	9.655249   
615.500000	9.502022   
616.000000	9.472113   
616.500000	9.583515   
617.000000	9.654696   
617.500000	9.684628   
618.000000	9.774689   
618.500000	9.889977   
619.000000	9.990969   
619.500000	9.937553   
620.000000	10.010189  
620.500000	10.173469  
621.000000	10.346212  
621.500000	10.280621  
622.000000	10.398939  
622.500000	10.935954  
623.000000	11.624219  
623.500000	12.036848  
624.000000	12.141772  
624.500000	12.014189  
625.000000	11.974045  
625.500000	12.149090  
626.000000	12.662681  
626.500000	13.229272  
627.000000	13.645674  
627.500000	14.206303  
628.000000	14.918265  
628.500000	15.563212  
629.000000	15.921409  
629.500000	16.294257  
630.000000	16.692719  
630.500000	17.053795  
631.000000	17.321462  
631.500000	17.661030  
632.000000	18.320416  
632.500000	18.933863  
633.000000	19.517348  
633.500000	20.002522  
634.000000	20.707863  
634.500000	21.381234  
635.000000	21.754719  
635.500000	22.129484  
636.000000	22.635666  
636.500000	23.188636  
637.000000	23.687113  
637.500000	24.627689  
638.000000	25.684992  
638.500000	26.420393  
639.000000	26.935939  
639.500000	28.127356  
640.000000	29.609689  
640.500000	30.794878  
641.000000	31.855606  
641.500000	33.260651  
642.000000	34.707689  
642.500000	35.687287  
643.000000	35.950924  
643.500000	36.381901  
644.000000	37.339310  
644.500000	38.851416  
645.000000	40.457477  
645.500000	41.758780  
646.000000	43.141250  
646.500000	44.418590  
647.000000	45.705643  
647.500000	46.666446  
648.000000	48.375325  
648.500000	50.155310  
649.000000	52.015939  
649.500000	53.786560  
650.000000	55.600424  
650.500000	57.211113  
651.000000	58.201689  
651.500000	59.562416  
652.000000	61.434227  
652.500000	63.400371  
653.000000	65.048295  
653.500000	66.849999  
654.000000	69.188810  
654.500000	71.306856  
655.000000	73.295689  
655.500000	75.335371  
656.000000	77.837265  
656.500000	79.882856  
657.000000	81.503833  
657.500000	83.537257  
658.000000	86.173666  
658.500000	89.489643  
659.000000	92.333325  
659.500000	94.498393  
660.000000	96.212825  
660.500000	98.293303  
661.000000	100.551378 
661.500000	102.795931 
662.000000	104.610818 
662.500000	106.818484 
663.000000	110.389393 
663.500000	114.991500 
664.000000	118.919734 
664.500000	120.514371 
665.000000	121.380454 
665.500000	123.389242 
666.000000	127.744696 
666.500000	132.155977 
667.000000	135.971992 
667.500000	138.491916 
668.000000	140.830280 
668.500000	142.176234 
669.000000	144.012492 
669.500000	146.575840 
670.000000	150.009166 
670.500000	152.942189 
671.000000	155.582848 
671.500000	158.204136 
672.000000	161.597181 
672.500000	164.392113 
673.000000	165.999500 
673.500000	167.139492 
674.000000	169.368234 
674.500000	173.314583 
675.000000	177.645992 
675.500000	181.374507 
676.000000	185.635803 
676.500000	190.474666 
677.000000	193.609409 
677.500000	194.477772 
678.000000	195.630477 
678.500000	198.880651 
679.000000	202.741681 
679.500000	204.446787 
680.000000	206.144401 
680.500000	207.829022 
681.000000	210.218340 
681.500000	211.519840 
682.000000	214.121878 
682.500000	216.559257 
683.000000	219.172128 
683.500000	220.371659 
684.000000	221.974310 
684.500000	223.706204 
685.000000	226.294856 
685.500000	229.302810 
686.000000	231.335386 
686.500000	232.525598 
687.000000	233.473545 
687.500000	233.930727 
688.000000	232.892363 
688.500000	230.208121 
689.000000	228.003022 
689.500000	227.881356 
690.000000	229.451106 
690.500000	231.097810 
691.000000	231.623446 
691.500000	230.295227 
692.000000	227.307787 
692.500000	223.226416 
693.000000	219.004462 
693.500000	216.313454 
694.000000	214.808462 
694.500000	214.152053 
695.000000	213.681030 
695.500000	213.054333 
696.000000	211.419030 
696.500000	208.360522 
697.000000	204.241833 
697.500000	199.638325 
698.000000	195.281196 
698.500000	190.742333 
699.000000	187.040030 
699.500000	183.468916 
700.000000	180.380954 
700.500000	175.696416 
701.000000	170.871780 
701.500000	166.466598 
702.000000	164.528931 
702.500000	161.922954 
703.000000	157.936128 
703.500000	151.927409 
704.000000	147.170750 
704.500000	143.523446 
705.000000	141.239272 
705.500000	138.630522 
706.000000	136.336174 
706.500000	133.534257 
707.000000	129.966045 
707.500000	125.329053 
708.000000	121.145553 
708.500000	117.656166 
709.000000	114.652030 
709.500000	111.567560 
710.000000	108.821977 
710.500000	106.545227 
711.000000	104.500553 
711.500000	102.173643 
712.000000	99.971674  
712.500000	97.641689  
713.000000	95.193606  
713.500000	92.219833  
714.000000	89.005916  
714.500000	85.830613  
715.000000	83.161803  
715.500000	80.842242  
716.000000	78.195916  
716.500000	75.714931  
717.000000	74.204257  
717.500000	73.334106  
718.000000	71.064303  
718.500000	68.334893  
719.000000	66.043356  
719.500000	65.099234  
720.000000	63.235962  
720.500000	61.482272  
721.000000	59.408007  
721.500000	57.783984  
722.000000	55.211500  
722.500000	54.011750  
723.000000	53.122219  
723.500000	52.185446  
724.000000	49.601545  
724.500000	47.335121  
725.000000	45.577628  
725.500000	44.363651  
726.000000	42.834636  
726.500000	41.600924  
727.000000	40.729106  
727.500000	40.325265  
728.000000	39.926181  
728.500000	39.219780  
729.000000	37.756000  
729.500000	36.028318  
730.000000	34.256954  
730.500000	32.984462  
731.000000	32.179924  
731.500000	31.849856  
732.000000	31.658431  
732.500000	31.242522  
733.000000	30.523000  
733.500000	29.453128  
734.000000	28.463007  
734.500000	27.451606  
735.000000	26.744143  
735.500000	25.930962  
736.000000	25.219984  
736.500000	24.418727  
737.000000	23.863909  
737.500000	23.330977  
738.000000	23.365674  
738.500000	23.175621  
739.000000	22.795871  
739.500000	22.062734  
740.000000	21.773068  
740.500000	21.193901  
741.000000	20.167431  
741.500000	18.853666  
742.000000	18.230946  
742.500000	18.396901  
743.000000	18.810090  
743.500000	18.951696  
744.000000	18.536106  
744.500000	17.502674  
745.000000	16.535560  
745.500000	16.071749  
746.000000	16.036393  
746.500000	15.713833  
747.000000	15.058250  
747.500000	14.350606  
748.000000	14.122371  
748.500000	14.166348  
749.000000	14.030636  
749.500000	13.858810  
750.000000	13.609909  
750.500000	13.739810  
751.000000	13.414530  
751.500000	13.029818  
752.000000	12.453795  
752.500000	12.552060  
753.000000	12.508537  
753.500000	12.093636  
754.000000	11.078378  
754.500000	10.327166  
755.000000	10.011303  
755.500000	10.000909  
756.000000	10.055022  
756.500000	10.108833  
757.000000	10.141272  
757.500000	10.050939  
758.000000	9.777234   
758.500000	9.538628   
759.000000	9.402363   
759.500000	9.440621   
760.000000	9.058613   
760.500000	8.635212   
761.000000	8.329250   
761.500000	8.597121   
762.000000	8.635401   
762.500000	8.294772   
763.000000	7.699310   
763.500000	7.507196   
764.000000	7.734484   
764.500000	8.041901   
765.000000	8.178992   
765.500000	7.903734   
766.000000	7.544515   
766.500000	7.192272   
767.000000	7.040310   
767.500000	6.983871   
768.000000	6.910856   
768.500000	6.695787   
769.000000	6.567674   
769.500000	6.653037   
770.000000	6.762909   
770.500000	6.421772   
771.000000	6.041242   
771.500000	5.948151   
772.000000	6.141878   
772.500000	6.045522   
773.000000	5.788666   
773.500000	5.619272   
774.000000	5.621075   
774.500000	5.552537   
775.000000	5.441621   
775.500000	5.385106   
776.000000	5.533189   
776.500000	5.767340   
777.000000	5.948303   
777.500000	5.709795   
778.000000	5.448651   
778.500000	5.257454   
779.000000	5.242568   
779.500000	4.905439   
780.000000	4.569560   
780.500000	4.545590   
781.000000	4.924606   
781.500000	5.104053   
782.000000	4.790204   
782.500000	4.261469   
783.000000	3.883075   
783.500000	3.778878   
784.000000	3.691848   
784.500000	3.830863   
785.000000	4.100015   
785.500000	4.399015   
786.000000	4.363954   
786.500000	4.210477   
787.000000	3.994977   
787.500000	3.834083   
788.000000	3.605166   
788.500000	3.424378   
789.000000	3.401037   
789.500000	3.401840   
790.000000	3.490734   
790.500000	3.566492   
791.000000	3.702803   
791.500000	3.630742   
792.000000	3.521848   
792.500000	3.390931   
793.000000	3.417674   
793.500000	3.556181   
794.000000	3.709689   
794.500000	3.709363   
795.000000	3.583143   
795.500000	3.459613   
796.000000	3.344924   
796.500000	3.211772   
797.000000	3.075295   
797.500000	2.993803   
798.000000	3.011712   
798.500000	3.013174   
799.000000	3.062621   
799.500000	3.108719   
800.000000	3.122159   
800.500000	3.069439   
801.000000	3.068196   
801.500000	3.098560   
802.000000	3.050166   
802.500000	2.839151   
803.000000	2.631303   
803.500000	2.682780   
804.000000	2.890659   
804.500000	2.999522   
805.000000	2.874015   
805.500000	2.731416   
806.000000	2.624333   
806.500000	2.585939   
807.000000	2.601113   
807.500000	2.779424   
808.000000	3.003590   
808.500000	3.171712   
809.000000	3.068727   
809.500000	2.857325   
810.000000	2.672507   
810.500000	2.729227   
811.000000	2.904522   
811.500000	3.039719   
812.000000	2.945098   
812.500000	2.760916   
813.000000	2.572265   
813.500000	2.453803   
814.000000	2.429909   
814.500000	2.534916   
815.000000	2.721022   
815.500000	2.809219   
816.000000	2.755878   
816.500000	2.709431   
817.000000	2.736954   
817.500000	2.733863   
818.000000	2.591446   
818.500000	2.401818   
819.000000	2.357522   
819.500000	2.493848   
820.000000	2.711878   
820.500000	2.845590   
821.000000	2.826803   
821.500000	2.798757   
822.000000	2.875409   
822.500000	2.998962   
823.000000	3.093636   
823.500000	3.178325   
824.000000	3.242015   
824.500000	3.215825   
825.000000	3.083757   
825.500000	2.929280   
826.000000	2.862287   
826.500000	2.815363   
827.000000	2.775378   
827.500000	2.731030   
828.000000	2.647136   
828.500000	2.577848   
829.000000	2.551378   
829.500000	2.512227   
830.000000	2.382075   
830.500000	2.299856   
831.000000	2.341833   
831.500000	2.424628   
832.000000	2.322833   
832.500000	2.146204   
833.000000	2.031530   
833.500000	1.996787   
834.000000	1.849318   
834.500000	1.726068   
835.000000	1.714068   
835.500000	1.806462   
836.000000	1.816545   
836.500000	1.767757   
837.000000	1.730734   
837.500000	1.588939   
838.000000	1.333833   
838.500000	0.997621   
839.000000	0.923371   
839.500000	0.962515   
840.000000	1.013825   
840.500000	0.872000   
841.000000	0.813545   
841.500000	0.822871   
842.000000	0.955871   
842.500000	1.092000   
843.000000	1.095303   
843.500000	0.975234   
844.000000	0.772280   
844.500000	0.680901   
845.000000	0.680893   
845.500000	0.769295   
846.000000	0.845931   
846.500000	0.934537   
847.000000	0.950893   
847.500000	0.885325   
848.000000	0.823696   
848.500000	0.645924   
849.000000	0.482499   
849.500000	0.365575   
850.000000	0.340856   
850.500000	0.291181   
851.000000	0.250825   
851.500000	0.181378   
852.000000	0.074196   
852.500000	-0.047121  
853.000000	-0.055537  
853.500000	0.154931   
854.000000	0.233954   
854.500000	0.322136   
855.000000	0.318742   
855.500000	0.340136   
856.000000	0.171196   
856.500000	0.193181   
857.000000	0.272409   
857.500000	0.429477   
858.000000	0.246151   
858.500000	0.029007   
859.000000	-0.109840  
859.500000	-0.049196  
860.000000	0.074780   
860.500000	0.207265   
861.000000	0.213643   
861.500000	0.109401   
862.000000	0.024265   
862.500000	0.048984   
863.000000	0.161598   
863.500000	0.232750   
864.000000	0.169265   
864.500000	0.139795   
865.000000	0.076431   
865.500000	0.085606   
866.000000	-0.003090  
866.500000	0.046931   
867.000000	0.100939   
867.500000	0.206439   
868.000000	0.125863   
868.500000	0.034500   
869.000000	-0.067196  
869.500000	-0.031484  
870.000000	-0.016613  
870.500000	-0.009575  
871.000000	-0.041598  
871.500000	-0.017560  
872.000000	-0.076666  
872.500000	-0.162954  
873.000000	-0.231810  
873.500000	-0.071628  
874.000000	0.113045   
874.500000	0.124287   
875.000000	-0.014409  
875.500000	-0.099265  
876.000000	-0.066022  
876.500000	-0.015545  
877.000000	0.006606   
877.500000	-0.012848  
878.000000	-0.027053  
878.500000	-0.157242  
879.000000	-0.239492  
879.500000	-0.138242  
880.000000	0.080280   
880.500000	0.175030   
881.000000	0.086871   
881.500000	-0.025393  
882.000000	0.007401   
882.500000	0.057234   
883.000000	0.067242   
883.500000	-0.055439  
884.000000	-0.148659  
884.500000	-0.151825  
885.000000	-0.014416  
885.500000	0.045015   
886.000000	-0.066553  
886.500000	-0.204984  
887.000000	-0.239462  
887.500000	-0.179340  
888.000000	-0.159484  
888.500000	-0.044727  
889.000000	0.019893   
889.500000	0.061295   
890.000000	0.004780   
890.500000	0.025272   
891.000000	0.096348   
891.500000	0.241287   
892.000000	0.296901   
892.500000	0.300393   
893.000000	0.226636   
893.500000	0.158189   
894.000000	0.075939   
894.500000	-0.102893  
895.000000	-0.181287  
895.500000	-0.090704  
896.000000	0.103772   
896.500000	0.062409   
897.000000	-0.030492  
897.500000	-0.140992  
898.000000	-0.130340  
898.500000	-0.145606  
899.000000	-0.100893  
899.500000	-0.106522  
900.000000	-0.217530  
900.500000	-0.513000  

