PE FL                   SPECTRUM    ASCII       PEDS        1.60        
  -1
S01P.SP
24/04/05
12:04:30.00
24/04/05
12:05:53.00
Jan

900.500000
1









LS55
455.00
5.00
5.00
SCAN
1
20
100
100
0
400
0
1
0
1
5
ON
900 455 
1 0 0
#HDR
-1
-1
#GR
NM

0.00002384185791015625
0.0
460.000000
0.500000
882
8
540.206545
-0.991999
#DATA
460.000000	-0.274000  
460.500000	0.185924   
461.000000	0.362742   
461.500000	0.260022   
462.000000	0.059060   
462.500000	0.071666   
463.000000	0.208053   
463.500000	0.377409   
464.000000	0.301174   
464.500000	0.224992   
465.000000	0.241643   
465.500000	0.377015   
466.000000	0.307431   
466.500000	0.188727   
467.000000	0.154000   
467.500000	0.156310   
468.000000	0.092757   
468.500000	-0.011454  
469.000000	0.001606   
469.500000	0.097507   
470.000000	0.215689   
470.500000	0.393704   
471.000000	0.461507   
471.500000	0.415378   
472.000000	0.184371   
472.500000	0.209227   
473.000000	0.342060   
473.500000	0.542818   
474.000000	0.535545   
474.500000	0.433090   
475.000000	0.404257   
475.500000	0.378606   
476.000000	0.406083   
476.500000	0.407409   
477.000000	0.506287   
477.500000	0.492659   
478.000000	0.362939   
478.500000	0.319696   
479.000000	0.353992   
479.500000	0.395916   
480.000000	0.211598   
480.500000	0.106954   
481.000000	0.159386   
481.500000	0.371333   
482.000000	0.550621   
482.500000	0.653977   
483.000000	0.700636   
483.500000	0.598045   
484.000000	0.450575   
484.500000	0.391045   
485.000000	0.408825   
485.500000	0.456204   
486.000000	0.501969   
486.500000	0.453537   
487.000000	0.244484   
487.500000	0.006227   
488.000000	0.002780   
488.500000	0.249893   
489.000000	0.581212   
489.500000	0.665151   
490.000000	0.566227   
490.500000	0.348189   
491.000000	0.218772   
491.500000	0.230643   
492.000000	0.273181   
492.500000	0.372886   
493.000000	0.481166   
493.500000	0.550984   
494.000000	0.457136   
494.500000	0.502159   
495.000000	0.591378   
495.500000	0.666363   
496.000000	0.572295   
496.500000	0.579098   
497.000000	0.689810   
497.500000	0.757159   
498.000000	0.737393   
498.500000	0.619628   
499.000000	0.575250   
499.500000	0.603840   
500.000000	0.800545   
500.500000	0.792431   
501.000000	0.624530   
501.500000	0.453954   
502.000000	0.580803   
502.500000	0.775212   
503.000000	0.895977   
503.500000	0.906015   
504.000000	0.939643   
504.500000	0.977212   
505.000000	1.037750   
505.500000	1.066037   
506.000000	1.029272   
506.500000	0.914121   
507.000000	0.810916   
507.500000	0.780977   
508.000000	0.849560   
508.500000	0.903681   
509.000000	0.917575   
509.500000	0.950090   
510.000000	1.019939   
510.500000	0.994348   
511.000000	0.873613   
511.500000	0.716878   
512.000000	0.686742   
512.500000	0.752136   
513.000000	0.887666   
513.500000	0.986446   
514.000000	1.059537   
514.500000	1.095765   
515.000000	1.189848   
515.500000	1.271265   
516.000000	1.391196   
516.500000	1.618992   
517.000000	1.712386   
517.500000	1.621234   
518.000000	1.307045   
518.500000	1.089022   
519.000000	1.052022   
519.500000	1.206250   
520.000000	1.330833   
520.500000	1.494962   
521.000000	1.649765   
521.500000	1.789500   
522.000000	1.787757   
522.500000	1.682363   
523.000000	1.629265   
523.500000	1.826568   
524.000000	1.836242   
524.500000	1.874227   
525.000000	1.910750   
525.500000	2.181825   
526.000000	2.147840   
526.500000	2.042674   
527.000000	2.020643   
527.500000	2.338174   
528.000000	2.424446   
528.500000	2.298378   
529.000000	2.200992   
529.500000	2.313007   
530.000000	2.445340   
530.500000	2.501371   
531.000000	2.504666   
531.500000	2.523946   
532.000000	2.509643   
532.500000	2.485878   
533.000000	2.484651   
533.500000	2.495704   
534.000000	2.488522   
534.500000	2.498780   
535.000000	2.586075   
535.500000	2.624371   
536.000000	2.587424   
536.500000	2.489113   
537.000000	2.549537   
537.500000	2.681386   
538.000000	2.845659   
538.500000	2.800598   
539.000000	2.888507   
539.500000	3.210840   
540.000000	3.889689   
540.500000	4.336462   
541.000000	4.406212   
541.500000	4.226507   
542.000000	4.221318   
542.500000	4.308825   
543.000000	4.466681   
543.500000	4.660590   
544.000000	4.872742   
544.500000	4.966113   
545.000000	5.148825   
545.500000	5.476219   
546.000000	5.929075   
546.500000	6.080977   
547.000000	6.245621   
547.500000	6.370530   
548.000000	6.535795   
548.500000	6.643386   
549.000000	6.913901   
549.500000	7.282863   
550.000000	7.550795   
550.500000	7.611454   
551.000000	7.457681   
551.500000	7.365666   
552.000000	7.463750   
552.500000	8.162234   
553.000000	8.701856   
553.500000	8.697446   
554.000000	8.301750   
554.500000	8.096545   
555.000000	8.171765   
555.500000	8.361848   
556.000000	8.633424   
556.500000	8.815333   
557.000000	9.019833   
557.500000	8.978719   
558.000000	9.030780   
558.500000	9.113083   
559.000000	9.500015   
559.500000	10.036015  
560.000000	10.377969  
560.500000	10.370075  
561.000000	10.395886  
561.500000	10.657401  
562.000000	11.052545  
562.500000	11.409416  
563.000000	11.581636  
563.500000	11.738227  
564.000000	12.033287  
564.500000	12.467401  
565.000000	12.790984  
565.500000	12.898401  
566.000000	13.191303  
566.500000	13.872022  
567.000000	14.817143  
567.500000	15.552227  
568.000000	16.170401  
568.500000	16.709507  
569.000000	17.272401  
569.500000	17.709962  
570.000000	18.129848  
570.500000	18.722348  
571.000000	19.320333  
571.500000	19.738598  
572.000000	20.213931  
572.500000	21.041840  
573.000000	22.237734  
573.500000	23.046856  
574.000000	23.415386  
574.500000	23.556242  
575.000000	24.133015  
575.500000	25.096863  
576.000000	26.044484  
576.500000	27.098795  
577.000000	27.655568  
577.500000	27.977765  
578.000000	28.051181  
578.500000	28.777545  
579.000000	29.958166  
579.500000	31.203136  
580.000000	31.597174  
580.500000	31.977378  
581.000000	32.871409  
581.500000	34.222924  
582.000000	35.250696  
582.500000	35.589007  
583.000000	36.107780  
583.500000	37.206204  
584.000000	38.472848  
584.500000	38.979492  
585.000000	39.589045  
585.500000	40.411000  
586.000000	41.818121  
586.500000	42.725159  
587.000000	43.736833  
587.500000	44.999462  
588.000000	46.713295  
588.500000	48.221015  
589.000000	49.853878  
589.500000	51.659507  
590.000000	53.460340  
590.500000	54.965045  
591.000000	56.205765  
591.500000	57.849909  
592.000000	59.613946  
592.500000	62.051886  
593.000000	64.483151  
593.500000	66.843765  
594.000000	68.064318  
594.500000	68.934583  
595.000000	70.335431  
595.500000	72.745909  
596.000000	75.339340  
596.500000	77.048196  
597.000000	78.376280  
597.500000	80.111060  
598.000000	82.256803  
598.500000	85.372840  
599.000000	88.250098  
599.500000	90.653333  
600.000000	91.589954  
600.500000	93.140257  
601.000000	95.877545  
601.500000	99.683219  
602.000000	103.161325 
602.500000	105.003015 
603.000000	106.422984 
603.500000	107.273083 
604.000000	110.108575 
604.500000	113.459719 
605.000000	117.286765 
605.500000	119.833166 
606.000000	122.614090 
606.500000	125.592189 
607.000000	128.643113 
607.500000	131.390446 
608.000000	135.072818 
608.500000	139.026121 
609.000000	141.863719 
609.500000	144.083356 
610.000000	147.431106 
610.500000	152.184825 
611.000000	156.829742 
611.500000	160.959962 
612.000000	164.726636 
612.500000	168.741401 
613.000000	171.541227 
613.500000	174.920000 
614.000000	178.468363 
614.500000	183.377500 
615.000000	187.338348 
615.500000	191.171719 
616.000000	195.023234 
616.500000	200.908348 
617.000000	207.499719 
617.500000	213.839166 
618.000000	219.265560 
618.500000	222.939590 
619.000000	226.147719 
619.500000	230.465060 
620.000000	236.797704 
620.500000	243.741143 
621.000000	248.857348 
621.500000	253.021560 
622.000000	257.558318 
622.500000	263.836916 
623.000000	269.521242 
623.500000	274.749545 
624.000000	278.175674 
624.500000	282.399901 
625.000000	288.215659 
625.500000	295.638484 
626.000000	302.873189 
626.500000	310.312121 
627.000000	316.903303 
627.500000	323.260121 
628.000000	327.814742 
628.500000	334.512704 
629.000000	341.605356 
629.500000	348.234765 
630.000000	352.215537 
630.500000	357.796757 
631.000000	365.240151 
631.500000	373.044000 
632.000000	379.799136 
632.500000	386.298856 
633.000000	392.287840 
633.500000	395.988371 
634.000000	400.220363 
634.500000	407.483946 
635.000000	417.428704 
635.500000	425.926924 
636.000000	431.843901 
636.500000	436.679272 
637.000000	442.010128 
637.500000	446.957522 
638.000000	451.509303 
638.500000	455.635242 
639.000000	459.678318 
639.500000	464.814856 
640.000000	472.209810 
640.500000	480.000999 
641.000000	484.362280 
641.500000	486.477174 
642.000000	489.376272 
642.500000	495.483962 
643.000000	501.048878 
643.500000	504.429401 
644.000000	505.300598 
644.500000	507.630818 
645.000000	511.741477 
645.500000	516.640348 
646.000000	521.413651 
646.500000	524.019121 
647.000000	525.627636 
647.500000	526.705810 
648.000000	530.249939 
648.500000	534.497212 
649.000000	537.973742 
649.500000	539.782310 
650.000000	540.206545 
650.500000	538.550954 
651.000000	535.725378 
651.500000	534.645628 
652.000000	535.844931 
652.500000	537.977431 
653.000000	538.328204 
653.500000	537.715704 
654.000000	537.883856 
654.500000	538.406204 
655.000000	537.686393 
655.500000	535.278234 
656.000000	532.826371 
656.500000	532.335340 
657.000000	531.659484 
657.500000	529.465772 
658.000000	525.471053 
658.500000	522.645795 
659.000000	520.686871 
659.500000	518.901416 
660.000000	514.111750 
660.500000	506.947674 
661.000000	499.949075 
661.500000	496.331984 
662.000000	495.268075 
662.500000	493.367727 
663.000000	488.602606 
663.500000	481.534189 
664.000000	475.533734 
664.500000	470.609757 
665.000000	464.995515 
665.500000	458.725757 
666.000000	453.898469 
666.500000	450.017848 
667.000000	446.479742 
667.500000	440.877045 
668.000000	435.184765 
668.500000	427.611984 
669.000000	421.004962 
669.500000	413.721477 
670.000000	407.514522 
670.500000	399.152507 
671.000000	392.814651 
671.500000	387.038166 
672.000000	382.119590 
672.500000	373.942121 
673.000000	365.759704 
673.500000	356.968242 
674.000000	350.168045 
674.500000	343.612196 
675.000000	337.792674 
675.500000	330.297189 
676.000000	322.430924 
676.500000	315.092954 
677.000000	308.798750 
677.500000	301.524386 
678.000000	294.212757 
678.500000	287.407901 
679.000000	281.578159 
679.500000	275.559242 
680.000000	269.814393 
680.500000	262.599121 
681.000000	254.725810 
681.500000	246.818522 
682.000000	241.086181 
682.500000	235.687712 
683.000000	230.558734 
683.500000	224.899750 
684.000000	219.433734 
684.500000	213.084037 
685.000000	206.894356 
685.500000	200.899901 
686.000000	195.559363 
686.500000	189.511431 
687.000000	183.380128 
687.500000	176.993803 
688.000000	171.241121 
688.500000	166.527583 
689.000000	162.954386 
689.500000	159.314924 
690.000000	154.671477 
690.500000	150.575416 
691.000000	146.664227 
691.500000	143.386393 
692.000000	138.827393 
692.500000	134.319704 
693.000000	129.538818 
693.500000	125.456674 
694.000000	121.872666 
694.500000	119.277340 
695.000000	116.415462 
695.500000	112.669734 
696.000000	109.010969 
696.500000	106.772954 
697.000000	105.284015 
697.500000	103.166893 
698.000000	99.651007  
698.500000	96.442325  
699.000000	93.724159  
699.500000	91.645212  
700.000000	88.999734  
700.500000	85.918219  
701.000000	82.800886  
701.500000	80.395924  
702.000000	78.496878  
702.500000	76.484833  
703.000000	74.381977  
703.500000	71.987810  
704.000000	69.914265  
704.500000	68.087022  
705.000000	67.364886  
705.500000	66.368257  
706.000000	64.885575  
706.500000	62.518333  
707.000000	61.071818  
707.500000	59.713189  
708.000000	58.645727  
708.500000	56.618553  
709.000000	54.669363  
709.500000	52.463257  
710.000000	51.063916  
710.500000	50.500446  
711.000000	50.438643  
711.500000	49.881818  
712.000000	49.043606  
712.500000	47.957037  
713.000000	46.775386  
713.500000	45.312053  
714.000000	43.967787  
714.500000	42.631143  
715.000000	41.572477  
715.500000	40.545037  
716.000000	39.886916  
716.500000	39.149151  
717.000000	37.980772  
717.500000	36.966212  
718.000000	36.432196  
718.500000	36.287484  
719.000000	35.859401  
719.500000	35.147606  
720.000000	34.344212  
720.500000	33.535575  
721.000000	32.494363  
721.500000	31.472674  
722.000000	30.637810  
722.500000	30.281848  
723.000000	30.168848  
723.500000	30.144765  
724.000000	29.444446  
724.500000	28.285280  
725.000000	26.878712  
725.500000	26.194575  
726.000000	26.225742  
726.500000	26.262742  
727.000000	26.093583  
727.500000	25.799431  
728.000000	25.808143  
728.500000	25.144121  
729.000000	24.012598  
729.500000	22.694871  
730.000000	22.572962  
730.500000	22.625386  
731.000000	22.604734  
731.500000	22.027098  
732.000000	21.697924  
732.500000	21.027946  
733.000000	20.494007  
733.500000	19.920060  
734.000000	19.996666  
734.500000	20.114553  
735.000000	19.869681  
735.500000	19.140939  
736.000000	18.449090  
736.500000	18.426356  
737.000000	18.360318  
737.500000	18.231166  
738.000000	17.557287  
738.500000	17.599643  
739.000000	17.868272  
739.500000	17.855712  
740.000000	17.297795  
740.500000	16.560181  
741.000000	16.111257  
741.500000	15.738151  
742.000000	15.772939  
742.500000	15.494553  
743.000000	15.009106  
743.500000	14.004113  
744.000000	13.465780  
744.500000	13.684659  
745.000000	14.249909  
745.500000	14.716446  
746.000000	14.761219  
746.500000	14.606007  
747.000000	14.173696  
747.500000	13.968416  
748.000000	13.683628  
748.500000	13.650356  
749.000000	13.199818  
749.500000	12.713522  
750.000000	12.206196  
750.500000	11.968946  
751.000000	11.640878  
751.500000	11.552515  
752.000000	11.643257  
752.500000	11.787378  
753.000000	11.580689  
753.500000	11.207265  
754.000000	10.895810  
754.500000	10.972803  
755.000000	11.042454  
755.500000	11.124242  
756.000000	10.873757  
756.500000	10.864469  
757.000000	10.701886  
757.500000	10.521530  
758.000000	10.099530  
758.500000	10.106037  
759.000000	10.116310  
759.500000	10.058946  
760.000000	9.571568   
760.500000	9.493924   
761.000000	9.605386   
761.500000	9.741492   
762.000000	9.615674   
762.500000	9.562393   
763.000000	9.459734   
763.500000	9.230416   
764.000000	8.870742   
764.500000	8.703749   
765.000000	8.690045   
765.500000	8.612666   
766.000000	8.434969   
766.500000	8.450621   
767.000000	8.507469   
767.500000	8.407409   
768.000000	7.862537   
768.500000	7.209143   
769.000000	6.898060   
769.500000	7.026598   
770.000000	7.169909   
770.500000	7.176636   
771.000000	7.112742   
771.500000	7.074962   
772.000000	6.858772   
772.500000	6.585537   
773.000000	6.558924   
773.500000	6.790000   
774.000000	6.774522   
774.500000	6.498462   
775.000000	6.266537   
775.500000	6.284000   
776.000000	6.363265   
776.500000	6.345416   
777.000000	6.254068   
777.500000	6.172053   
778.000000	5.968674   
778.500000	5.885909   
779.000000	6.021696   
779.500000	6.260568   
780.000000	6.357666   
780.500000	6.200893   
781.000000	5.964250   
781.500000	5.842015   
782.000000	5.929537   
782.500000	5.771575   
783.000000	5.389090   
783.500000	4.858681   
784.000000	4.847916   
784.500000	5.268265   
785.000000	5.755946   
785.500000	5.820075   
786.000000	5.743340   
786.500000	5.597310   
787.000000	5.607189   
787.500000	5.517537   
788.000000	5.328242   
788.500000	5.172712   
789.000000	5.122818   
789.500000	5.070674   
790.000000	5.031507   
790.500000	4.861613   
791.000000	4.700583   
791.500000	4.504765   
792.000000	4.303128   
792.500000	4.076250   
793.000000	4.103181   
793.500000	4.222886   
794.000000	4.484181   
794.500000	4.685371   
795.000000	4.828098   
795.500000	4.793212   
796.000000	4.538916   
796.500000	4.118439   
797.000000	3.839681   
797.500000	3.836515   
798.000000	3.957916   
798.500000	4.102628   
799.000000	4.241583   
799.500000	4.412598   
800.000000	4.396992   
800.500000	4.051075   
801.000000	3.578022   
801.500000	3.494030   
802.000000	3.680545   
802.500000	3.930340   
803.000000	3.979106   
803.500000	3.889166   
804.000000	3.679765   
804.500000	3.640871   
805.000000	3.603810   
805.500000	3.638196   
806.000000	3.443000   
806.500000	3.423250   
807.000000	3.479159   
807.500000	3.585681   
808.000000	3.397856   
808.500000	3.172681   
809.000000	2.967833   
809.500000	2.952530   
810.000000	3.119219   
810.500000	3.340098   
811.000000	3.602946   
811.500000	3.661310   
812.000000	3.523780   
812.500000	3.151659   
813.000000	2.848553   
813.500000	2.873909   
814.000000	3.242098   
814.500000	3.412704   
815.000000	3.211886   
815.500000	2.907734   
816.000000	2.814053   
816.500000	2.932272   
817.000000	2.998939   
817.500000	3.001962   
818.000000	2.895871   
818.500000	2.845568   
819.000000	2.831583   
819.500000	2.964734   
820.000000	3.059234   
820.500000	3.073492   
821.000000	3.107674   
821.500000	3.322227   
822.000000	3.638356   
822.500000	3.758318   
823.000000	3.768833   
823.500000	3.769750   
824.000000	3.857151   
824.500000	3.919909   
825.000000	3.918909   
825.500000	3.891310   
826.000000	3.742992   
826.500000	3.479712   
827.000000	3.210318   
827.500000	3.048181   
828.000000	2.904893   
828.500000	2.880939   
829.000000	2.888310   
829.500000	2.861340   
830.000000	2.682901   
830.500000	2.496946   
831.000000	2.356325   
831.500000	2.342280   
832.000000	2.315212   
832.500000	2.286083   
833.000000	2.359484   
833.500000	2.436674   
834.000000	2.463045   
834.500000	2.298287   
835.000000	2.147340   
835.500000	2.069681   
836.000000	2.027348   
836.500000	1.847053   
837.000000	1.609689   
837.500000	1.477606   
838.000000	1.462492   
838.500000	1.552439   
839.000000	1.513212   
839.500000	1.402098   
840.000000	1.310060   
840.500000	1.320477   
841.000000	1.291909   
841.500000	1.157825   
842.000000	1.039393   
842.500000	1.091446   
843.000000	1.214113   
843.500000	1.141545   
844.000000	0.871159   
844.500000	0.664469   
845.000000	0.699189   
845.500000	0.907674   
846.000000	0.997280   
846.500000	0.890787   
847.000000	0.732333   
847.500000	0.678393   
848.000000	0.686674   
848.500000	0.693128   
849.000000	0.674613   
849.500000	0.727303   
850.000000	0.818242   
850.500000	0.810590   
851.000000	0.674174   
851.500000	0.550015   
852.000000	0.493469   
852.500000	0.599484   
853.000000	0.667303   
853.500000	0.633484   
854.000000	0.542901   
854.500000	0.539893   
855.000000	0.504810   
855.500000	0.409666   
856.000000	0.405500   
856.500000	0.508772   
857.000000	0.581431   
857.500000	0.426916   
858.000000	0.294840   
858.500000	0.222924   
859.000000	0.232568   
859.500000	0.175568   
860.000000	0.234909   
860.500000	0.225871   
861.000000	0.196833   
861.500000	0.093022   
862.000000	0.166568   
862.500000	0.286272   
863.000000	0.379628   
863.500000	0.233242   
864.000000	0.119689   
864.500000	0.113045   
865.000000	0.229757   
865.500000	0.253712   
866.000000	0.299492   
866.500000	0.249727   
867.000000	0.244500   
867.500000	0.019287   
868.000000	-0.076606  
868.500000	-0.044939  
869.000000	0.199075   
869.500000	0.313318   
870.000000	0.200007   
870.500000	0.049106   
871.000000	0.054159   
871.500000	0.192803   
872.000000	0.186636   
872.500000	0.028303   
873.000000	-0.175007  
873.500000	-0.267772  
874.000000	-0.081515  
874.500000	0.153530   
875.000000	0.301401   
875.500000	0.147431   
876.000000	0.090575   
876.500000	0.129590   
877.000000	0.269454   
877.500000	0.189643   
878.000000	0.077712   
878.500000	-0.034863  
879.000000	-0.044651  
879.500000	-0.092090  
880.000000	-0.030022  
880.500000	0.095363   
881.000000	0.167643   
881.500000	0.053575   
882.000000	-0.081409  
882.500000	-0.090234  
883.000000	-0.024537  
883.500000	-0.020189  
884.000000	-0.071356  
884.500000	-0.134416  
885.000000	-0.068075  
885.500000	0.166166   
886.000000	0.420553   
886.500000	0.405000   
887.000000	0.207045   
887.500000	0.019871   
888.000000	0.029750   
888.500000	0.118810   
889.000000	0.166924   
889.500000	0.146204   
890.000000	0.031833   
890.500000	-0.060477  
891.000000	-0.115060  
891.500000	-0.093416  
892.000000	-0.057750  
892.500000	0.055803   
893.000000	0.027068   
893.500000	-0.083696  
894.000000	-0.193090  
894.500000	-0.191954  
895.000000	-0.117613  
895.500000	-0.062712  
896.000000	0.005484   
896.500000	0.077371   
897.000000	0.143189   
897.500000	0.114310   
898.000000	0.112083   
898.500000	0.209825   
899.000000	0.390886   
899.500000	0.352590   
900.000000	-0.124787  
900.500000	-0.991999  

