PE FL                   SPECTRUM    ASCII       PEDS        1.60        
  -1
S08P.SP
24/04/05
12:19:47.00
24/04/05
12:21:10.00
Jan

900.500000
1









LS55
455.00
5.00
5.00
SCAN
1
20
100
100
0
400
0
1
0
1
5
ON
900 455 
1 0 0
#HDR
-1
-1
#GR
NM

0.00002384185791015625
0.0
460.000000
0.500000
882
8
194.085121
-0.455000
#DATA
460.000000	0.152000   
460.500000	0.217560   
461.000000	0.039492   
461.500000	-0.273840  
462.000000	-0.380977  
462.500000	-0.322174  
463.000000	-0.132727  
463.500000	-0.003863  
464.000000	0.098484   
464.500000	-0.029924  
465.000000	-0.154939  
465.500000	-0.295393  
466.000000	-0.209954  
466.500000	-0.122962  
467.000000	-0.009174  
467.500000	-0.015734  
468.000000	-0.010795  
468.500000	-0.021060  
469.000000	0.062939   
469.500000	0.081886   
470.000000	0.078507   
470.500000	-0.018750  
471.000000	-0.090590  
471.500000	-0.104356  
472.000000	-0.096121  
472.500000	-0.129234  
473.000000	-0.145810  
473.500000	-0.059416  
474.000000	0.026742   
474.500000	0.135325   
475.000000	0.176128   
475.500000	0.228863   
476.000000	0.212356   
476.500000	0.204696   
477.000000	0.221310   
477.500000	0.277674   
478.000000	0.282431   
478.500000	0.314931   
479.000000	0.362090   
479.500000	0.341113   
480.000000	0.196098   
480.500000	-0.040924  
481.000000	-0.155954  
481.500000	-0.039719  
482.000000	0.163196   
482.500000	0.207075   
483.000000	0.135446   
483.500000	0.039522   
484.000000	0.030234   
484.500000	-0.031727  
485.000000	-0.125196  
485.500000	-0.161196  
486.000000	-0.122143  
486.500000	-0.093166  
487.000000	-0.112287  
487.500000	-0.104424  
488.000000	-0.026492  
488.500000	-0.006378  
489.000000	-0.080287  
489.500000	-0.111719  
490.000000	-0.048181  
490.500000	-0.060931  
491.000000	-0.158083  
491.500000	-0.274719  
492.000000	-0.209780  
492.500000	-0.187265  
493.000000	-0.207931  
493.500000	-0.208833  
494.000000	0.018636   
494.500000	0.226924   
495.000000	0.401734   
495.500000	0.471803   
496.000000	0.519075   
496.500000	0.389666   
497.000000	0.263840   
497.500000	0.249583   
498.000000	0.355954   
498.500000	0.311780   
499.000000	0.242090   
499.500000	0.309378   
500.000000	0.429318   
500.500000	0.451234   
501.000000	0.503272   
501.500000	0.670666   
502.000000	0.828234   
502.500000	0.827999   
503.000000	0.765977   
503.500000	0.761462   
504.000000	0.740696   
504.500000	0.694446   
505.000000	0.632454   
505.500000	0.598553   
506.000000	0.549053   
506.500000	0.577840   
507.000000	0.675931   
507.500000	0.837583   
508.000000	0.936492   
508.500000	0.885325   
509.000000	0.811621   
509.500000	0.801901   
510.000000	1.003181   
510.500000	1.210325   
511.000000	1.303893   
511.500000	1.171181   
512.000000	1.014492   
512.500000	0.953416   
513.000000	0.997924   
513.500000	1.107386   
514.000000	1.208734   
514.500000	1.466121   
515.000000	1.690030   
515.500000	1.930310   
516.000000	1.909962   
516.500000	1.946053   
517.000000	1.930946   
517.500000	2.027401   
518.000000	1.916000   
518.500000	1.771696   
519.000000	1.652863   
519.500000	1.747742   
520.000000	1.947356   
520.500000	2.125037   
521.000000	2.185348   
521.500000	2.105348   
522.000000	2.070803   
522.500000	2.079931   
523.000000	2.024659   
523.500000	1.900818   
524.000000	1.666818   
524.500000	1.621242   
525.000000	1.759234   
525.500000	2.217575   
526.000000	2.521537   
526.500000	2.585151   
527.000000	2.413931   
527.500000	2.397416   
528.000000	2.448393   
528.500000	2.536090   
529.000000	2.597242   
529.500000	2.603128   
530.000000	2.580446   
530.500000	2.594765   
531.000000	2.628765   
531.500000	2.590348   
532.000000	2.433598   
532.500000	2.400992   
533.000000	2.483469   
533.500000	2.653871   
534.000000	2.733189   
534.500000	2.711424   
535.000000	2.600212   
535.500000	2.586242   
536.000000	2.687310   
536.500000	2.778378   
537.000000	2.753166   
537.500000	2.810166   
538.000000	2.917734   
538.500000	3.174249   
539.000000	3.306803   
539.500000	3.498219   
540.000000	3.652681   
540.500000	4.064984   
541.000000	4.382378   
541.500000	4.580507   
542.000000	4.504537   
542.500000	4.763780   
543.000000	5.162227   
543.500000	5.445575   
544.000000	5.251992   
544.500000	5.109507   
545.000000	5.229090   
545.500000	5.595530   
546.000000	5.589545   
546.500000	5.544181   
547.000000	5.692636   
547.500000	6.092606   
548.000000	6.230196   
548.500000	6.170409   
549.000000	6.187916   
549.500000	6.655159   
550.000000	7.076840   
550.500000	7.227212   
551.000000	7.118189   
551.500000	7.413340   
552.000000	7.875522   
552.500000	8.024015   
553.000000	7.729280   
553.500000	7.771121   
554.000000	8.347659   
554.500000	9.128371   
555.000000	9.281446   
555.500000	8.948999   
556.000000	8.420431   
556.500000	8.405446   
557.000000	8.950742   
557.500000	9.826772   
558.000000	10.224886  
558.500000	10.067492  
559.000000	9.713318   
559.500000	9.466575   
560.000000	9.541803   
560.500000	9.481356   
561.000000	9.376560   
561.500000	9.384583   
562.000000	9.809136   
562.500000	10.057643  
563.000000	9.904575   
563.500000	9.486083   
564.000000	9.362128   
564.500000	9.344234   
565.000000	9.383575   
565.500000	9.547636   
566.000000	9.882787   
566.500000	9.913893   
567.000000	9.733795   
567.500000	9.457583   
568.000000	9.174810   
568.500000	9.057750   
569.000000	9.220992   
569.500000	9.637121   
570.000000	9.767454   
570.500000	9.716666   
571.000000	9.893909   
571.500000	10.439113  
572.000000	10.819196  
572.500000	11.127590  
573.000000	11.363977  
573.500000	11.544909  
574.000000	11.363545  
574.500000	11.082280  
575.000000	10.774871  
575.500000	10.676674  
576.000000	10.639659  
576.500000	10.901053  
577.000000	11.155848  
577.500000	11.211636  
578.000000	11.044196  
578.500000	11.132121  
579.000000	11.658143  
579.500000	12.126553  
580.000000	12.249227  
580.500000	12.065916  
581.000000	12.134954  
581.500000	12.477439  
582.000000	13.007348  
582.500000	13.033727  
583.000000	13.066621  
583.500000	13.064931  
584.000000	13.311810  
584.500000	13.272598  
585.000000	13.400575  
585.500000	13.603575  
586.000000	13.993037  
586.500000	14.424909  
587.000000	14.776613  
587.500000	14.896583  
588.000000	14.688075  
588.500000	14.216606  
589.000000	13.925946  
589.500000	14.049007  
590.000000	14.930363  
590.500000	15.833022  
591.000000	16.341560  
591.500000	15.906886  
592.000000	15.889242  
592.500000	16.184325  
593.000000	16.764500  
593.500000	17.104515  
594.000000	17.389022  
594.500000	17.870916  
595.000000	18.534969  
595.500000	19.040863  
596.000000	18.849439  
596.500000	18.819204  
597.000000	19.047196  
597.500000	19.898393  
598.000000	20.087090  
598.500000	20.046045  
599.000000	19.717818  
599.500000	20.165787  
600.000000	20.664954  
600.500000	21.430083  
601.000000	21.749386  
601.500000	22.258189  
602.000000	23.006401  
602.500000	24.067159  
603.000000	24.909068  
603.500000	25.254712  
604.000000	25.284075  
604.500000	25.412742  
605.000000	25.965878  
605.500000	26.889962  
606.000000	27.645083  
606.500000	27.745818  
607.000000	27.537333  
607.500000	27.571128  
608.000000	28.187295  
608.500000	28.662363  
609.000000	28.912075  
609.500000	28.503568  
610.000000	28.258939  
610.500000	27.684643  
611.000000	27.895151  
611.500000	27.982840  
612.000000	27.898136  
612.500000	26.703219  
613.000000	25.508136  
613.500000	24.502590  
614.000000	23.945469  
614.500000	23.338954  
615.000000	23.072136  
615.500000	22.709553  
616.000000	21.899643  
616.500000	20.800871  
617.000000	20.382568  
617.500000	20.554931  
618.000000	20.774871  
618.500000	20.332265  
619.000000	19.784106  
619.500000	19.772757  
620.000000	20.381537  
620.500000	20.944015  
621.000000	21.280371  
621.500000	21.569265  
622.000000	22.187090  
622.500000	22.486856  
623.000000	22.628068  
623.500000	23.070818  
624.000000	24.224833  
624.500000	24.767166  
625.000000	24.759075  
625.500000	24.793257  
626.000000	25.854931  
626.500000	27.243060  
627.000000	28.089189  
627.500000	28.014954  
628.000000	27.679037  
628.500000	27.919871  
629.000000	28.983704  
629.500000	30.223090  
630.000000	30.822204  
630.500000	31.123750  
631.000000	31.390969  
631.500000	31.786189  
632.000000	32.475530  
632.500000	33.537499  
633.000000	34.788439  
633.500000	35.753310  
634.000000	36.630500  
634.500000	37.770651  
635.000000	39.085537  
635.500000	40.024060  
636.000000	40.705749  
636.500000	42.011174  
637.000000	43.559606  
637.500000	45.108886  
638.000000	45.747931  
638.500000	46.286393  
639.000000	46.814181  
639.500000	48.043446  
640.000000	49.485787  
640.500000	50.588575  
641.000000	51.297196  
641.500000	52.255022  
642.000000	54.195469  
642.500000	56.612780  
643.000000	58.821007  
643.500000	60.243893  
644.000000	61.008886  
644.500000	61.999090  
645.000000	63.577416  
645.500000	65.394371  
646.000000	66.947954  
646.500000	69.116416  
647.000000	71.750659  
647.500000	73.937462  
648.000000	74.882575  
648.500000	75.181704  
649.000000	76.426954  
649.500000	78.814234  
650.000000	82.121416  
650.500000	84.287575  
651.000000	85.379060  
651.500000	86.174901  
652.000000	88.894848  
652.500000	92.199977  
653.000000	95.135803  
653.500000	96.402946  
654.000000	97.500340  
654.500000	99.524022  
655.000000	102.743871 
655.500000	106.122833 
656.000000	108.722621 
656.500000	111.061742 
657.000000	113.374621 
657.500000	115.542007 
658.000000	116.960416 
658.500000	119.436742 
659.000000	123.019416 
659.500000	126.730515 
660.000000	129.065219 
660.500000	132.097227 
661.000000	135.533666 
661.500000	138.481484 
662.000000	138.783840 
662.500000	139.490954 
663.000000	142.014863 
663.500000	146.322560 
664.000000	148.387053 
664.500000	149.848431 
665.000000	151.280280 
665.500000	154.448878 
666.000000	157.192962 
666.500000	160.481393 
667.000000	163.990257 
667.500000	168.091833 
668.000000	169.455212 
668.500000	170.002719 
669.000000	169.923318 
669.500000	171.219909 
670.000000	172.490469 
670.500000	175.830909 
671.000000	179.093750 
671.500000	182.475401 
672.000000	183.074401 
672.500000	184.003462 
673.000000	185.571143 
673.500000	188.312606 
674.000000	190.073439 
674.500000	190.552000 
675.000000	190.508015 
675.500000	191.273325 
676.000000	193.322712 
676.500000	194.085121 
677.000000	194.076000 
677.500000	193.429742 
678.000000	193.920227 
678.500000	193.724689 
679.000000	193.194310 
679.500000	192.213446 
680.000000	191.406946 
680.500000	190.192924 
681.000000	190.056181 
681.500000	191.001598 
682.000000	190.624553 
682.500000	188.294916 
683.000000	185.881325 
683.500000	185.172803 
684.000000	185.515113 
684.500000	185.011068 
685.000000	183.577128 
685.500000	181.305787 
686.000000	179.301401 
686.500000	177.333946 
687.000000	175.222613 
687.500000	171.912250 
688.000000	168.895704 
688.500000	166.127628 
689.000000	165.262424 
689.500000	164.489916 
690.000000	163.952272 
690.500000	160.712795 
691.000000	156.930825 
691.500000	152.649128 
692.000000	150.369901 
692.500000	147.329507 
693.000000	144.594613 
693.500000	141.459545 
694.000000	138.995454 
694.500000	136.608696 
695.000000	133.724295 
695.500000	130.464189 
696.000000	126.893477 
696.500000	123.103469 
697.000000	119.274590 
697.500000	115.682878 
698.000000	113.180954 
698.500000	111.686424 
699.000000	110.298530 
699.500000	107.582946 
700.000000	104.285787 
700.500000	100.937636 
701.000000	98.723424  
701.500000	97.163598  
702.000000	95.061803  
702.500000	92.611871  
703.000000	89.573507  
703.500000	87.014469  
704.000000	84.214878  
704.500000	82.053272  
705.000000	79.505340  
705.500000	77.707022  
706.000000	75.622212  
706.500000	73.947196  
707.000000	71.947053  
707.500000	69.895090  
708.000000	67.807643  
708.500000	66.153484  
709.000000	64.498265  
709.500000	62.879469  
710.000000	61.177795  
710.500000	59.619265  
711.000000	58.170704  
711.500000	56.623886  
712.000000	54.887787  
712.500000	53.306833  
713.000000	52.085401  
713.500000	50.747045  
714.000000	49.019295  
714.500000	47.669863  
715.000000	46.765151  
715.500000	46.096446  
716.000000	44.696628  
716.500000	43.790280  
717.000000	42.672303  
717.500000	41.729000  
718.000000	40.330462  
718.500000	39.373431  
719.000000	38.306265  
719.500000	37.198871  
720.000000	36.082378  
720.500000	34.990681  
721.000000	33.724590  
721.500000	32.335037  
722.000000	31.589378  
722.500000	31.467446  
723.000000	31.582901  
723.500000	31.101507  
724.000000	29.927204  
724.500000	28.359734  
725.000000	27.247606  
725.500000	26.452022  
726.000000	25.782401  
726.500000	24.967954  
727.000000	24.513545  
727.500000	24.403553  
728.000000	24.276568  
728.500000	23.817007  
729.000000	23.188090  
729.500000	22.528553  
730.000000	21.845015  
730.500000	21.221257  
731.000000	20.704310  
731.500000	20.334530  
732.000000	19.871128  
732.500000	19.535416  
733.000000	19.338280  
733.500000	19.057492  
734.000000	18.420181  
734.500000	17.768303  
735.000000	17.120507  
735.500000	16.660439  
736.000000	16.626075  
736.500000	16.783651  
737.000000	16.717643  
737.500000	16.174833  
738.000000	15.715969  
738.500000	15.224651  
739.000000	14.782212  
739.500000	14.309545  
740.000000	14.429303  
740.500000	14.351537  
741.000000	14.140515  
741.500000	13.639181  
742.000000	13.544128  
742.500000	13.494431  
743.000000	13.436454  
743.500000	12.940454  
744.000000	12.251833  
744.500000	11.644196  
745.000000	11.362234  
745.500000	11.377810  
746.000000	11.329643  
746.500000	11.187575  
747.000000	10.955666  
747.500000	10.651712  
748.000000	10.383833  
748.500000	10.307946  
749.000000	10.324871  
749.500000	10.178106  
750.000000	9.910257   
750.500000	9.829848   
751.000000	9.858560   
751.500000	9.723015   
752.000000	9.452401   
752.500000	9.278310   
753.000000	9.328863   
753.500000	9.341636   
754.000000	9.350522   
754.500000	8.898242   
755.000000	8.319696   
755.500000	7.845696   
756.000000	8.020674   
756.500000	8.288227   
757.000000	8.405727   
757.500000	8.399833   
758.000000	8.468901   
758.500000	8.153727   
759.000000	7.683750   
759.500000	7.222083   
760.000000	7.183121   
760.500000	7.358613   
761.000000	7.628515   
761.500000	7.503946   
762.000000	7.273090   
762.500000	6.903909   
763.000000	6.739795   
763.500000	6.750446   
764.000000	6.745659   
764.500000	6.804515   
765.000000	6.883598   
765.500000	6.808992   
766.000000	6.450196   
766.500000	6.225787   
767.000000	6.250954   
767.500000	6.422886   
768.000000	6.144878   
768.500000	5.638522   
769.000000	5.422363   
769.500000	5.566696   
770.000000	5.721121   
770.500000	5.680590   
771.000000	5.565772   
771.500000	5.362681   
772.000000	5.222787   
772.500000	5.187325   
773.000000	5.311098   
773.500000	5.396121   
774.000000	5.284484   
774.500000	5.234060   
775.000000	5.182598   
775.500000	5.175356   
776.000000	5.009416   
776.500000	4.818060   
777.000000	4.687363   
777.500000	4.671204   
778.000000	4.577181   
778.500000	4.462166   
779.000000	4.243696   
779.500000	4.061484   
780.000000	3.786424   
780.500000	3.864348   
781.000000	3.981651   
781.500000	4.240462   
782.000000	4.099909   
782.500000	4.109310   
783.000000	4.015189   
783.500000	3.895939   
784.000000	3.767484   
784.500000	3.868886   
785.000000	4.090060   
785.500000	4.126598   
786.000000	4.078848   
786.500000	3.873356   
787.000000	3.654863   
787.500000	3.456431   
788.000000	3.495234   
788.500000	3.737734   
789.000000	4.000946   
789.500000	4.116795   
790.000000	4.009371   
790.500000	3.941174   
791.000000	3.880022   
791.500000	3.793106   
792.000000	3.582977   
792.500000	3.536787   
793.000000	3.707181   
793.500000	3.777446   
794.000000	3.502295   
794.500000	3.415583   
795.000000	3.543795   
795.500000	3.724977   
796.000000	3.557757   
796.500000	3.347575   
797.000000	3.154916   
797.500000	3.310219   
798.000000	3.492643   
798.500000	3.584575   
799.000000	3.350545   
799.500000	2.929030   
800.000000	2.720219   
800.500000	2.715659   
801.000000	2.840121   
801.500000	2.845530   
802.000000	2.848340   
802.500000	2.785257   
803.000000	2.850409   
803.500000	2.937810   
804.000000	3.053075   
804.500000	3.073954   
805.000000	2.970606   
805.500000	2.729250   
806.000000	2.551848   
806.500000	2.472553   
807.000000	2.546878   
807.500000	2.617719   
808.000000	2.715871   
808.500000	2.753560   
809.000000	2.835477   
809.500000	2.835303   
810.000000	2.780939   
810.500000	2.650939   
811.000000	2.561856   
811.500000	2.511712   
812.000000	2.477992   
812.500000	2.548393   
813.000000	2.641371   
813.500000	2.617901   
814.000000	2.435553   
814.500000	2.309636   
815.000000	2.340492   
815.500000	2.437174   
816.000000	2.515265   
816.500000	2.607348   
817.000000	2.693803   
817.500000	2.611613   
818.000000	2.563174   
818.500000	2.656560   
819.000000	2.857643   
819.500000	2.936174   
820.000000	2.865795   
820.500000	2.822000   
821.000000	2.934212   
821.500000	3.075030   
822.000000	3.057689   
822.500000	3.076090   
823.000000	3.033015   
823.500000	3.131318   
824.000000	3.289159   
824.500000	3.415590   
825.000000	3.333128   
825.500000	3.197227   
826.000000	3.118636   
826.500000	3.070681   
827.000000	2.887136   
827.500000	2.637621   
828.000000	2.598272   
828.500000	2.586295   
829.000000	2.469507   
829.500000	2.322621   
830.000000	2.307780   
830.500000	2.272946   
831.000000	2.294893   
831.500000	2.270265   
832.000000	2.164090   
832.500000	1.898946   
833.000000	1.716772   
833.500000	1.775613   
834.000000	1.859757   
834.500000	1.932340   
835.000000	1.881348   
835.500000	1.919727   
836.000000	1.823856   
836.500000	1.774439   
837.000000	1.659750   
837.500000	1.605530   
838.000000	1.475280   
838.500000	1.329977   
839.000000	1.134106   
839.500000	0.994553   
840.000000	0.939469   
840.500000	0.928166   
841.000000	0.909053   
841.500000	0.900416   
842.000000	0.887507   
842.500000	0.885946   
843.000000	0.875780   
843.500000	0.916401   
844.000000	0.945507   
844.500000	0.922590   
845.000000	0.785931   
845.500000	0.632280   
846.000000	0.569636   
846.500000	0.684060   
847.000000	0.795840   
847.500000	0.815659   
848.000000	0.694530   
848.500000	0.497825   
849.000000	0.398151   
849.500000	0.439333   
850.000000	0.531681   
850.500000	0.503727   
851.000000	0.418795   
851.500000	0.356659   
852.000000	0.356272   
852.500000	0.357219   
853.000000	0.303439   
853.500000	0.283090   
854.000000	0.201977   
854.500000	0.118651   
855.000000	0.056590   
855.500000	0.145939   
856.000000	0.375590   
856.500000	0.563454   
857.000000	0.466356   
857.500000	0.156128   
858.000000	-0.051568  
858.500000	-0.013227  
859.000000	0.078340   
859.500000	0.114757   
860.000000	0.078704   
860.500000	0.154537   
861.000000	0.207136   
861.500000	0.195939   
862.000000	0.077810   
862.500000	0.007318   
863.000000	0.016568   
863.500000	0.070962   
864.000000	0.076886   
864.500000	-0.074939  
865.000000	-0.182946  
865.500000	-0.127378  
866.000000	0.150787   
866.500000	0.404303   
867.000000	0.435416   
867.500000	0.236651   
868.000000	0.066696   
868.500000	-0.035469  
869.000000	-0.116969  
869.500000	-0.143386  
870.000000	-0.090856  
870.500000	0.015477   
871.000000	0.017712   
871.500000	-0.081765  
872.000000	-0.181765  
872.500000	-0.242045  
873.000000	-0.280106  
873.500000	-0.201833  
874.000000	-0.082666  
874.500000	0.012242   
875.000000	-0.001007  
875.500000	-0.103045  
876.000000	-0.085083  
876.500000	-0.091378  
877.000000	-0.075583  
877.500000	-0.110893  
878.000000	-0.061795  
878.500000	-0.096803  
879.000000	-0.099992  
879.500000	-0.113439  
880.000000	0.004803   
880.500000	0.112045   
881.000000	0.152401   
881.500000	0.129689   
882.000000	0.044196   
882.500000	-0.093469  
883.000000	-0.183545  
883.500000	-0.193696  
884.000000	-0.113113  
884.500000	-0.138083  
885.000000	-0.231545  
885.500000	-0.326939  
886.000000	-0.181106  
886.500000	-0.017507  
887.000000	0.027628   
887.500000	-0.115909  
888.000000	-0.257643  
888.500000	-0.246946  
889.000000	-0.020219  
889.500000	0.240348   
890.000000	0.204901   
890.500000	-0.032795  
891.000000	-0.245878  
891.500000	-0.161431  
892.000000	-0.107174  
892.500000	-0.162939  
893.000000	-0.195848  
893.500000	0.002234   
894.000000	0.230598   
894.500000	0.319401   
895.000000	0.246863   
895.500000	0.089363   
896.000000	-0.051856  
896.500000	-0.147712  
897.000000	-0.035431  
897.500000	0.111462   
898.000000	0.178325   
898.500000	0.094583   
899.000000	0.017946   
899.500000	-0.080924  
900.000000	-0.228712  
900.500000	-0.455000  

