PE FL                   SPECTRUM    ASCII       PEDS        1.60        
  -1
S16P.SP
24/04/05
12:44:02.00
24/04/05
12:45:26.00
Jan

900.500000
1









LS55
455.00
5.00
5.00
SCAN
1
20
100
100
0
400
0
1
0
1
5
ON
900 455 
1 0 0
#HDR
-1
-1
#GR
NM

0.00002384185791015625
0.0
460.000000
0.500000
882
8
180.347068
-0.465530
#DATA
460.000000	0.392000   
460.500000	0.103992   
461.000000	0.004325   
461.500000	0.032545   
462.000000	-0.039484  
462.500000	-0.157106  
463.000000	-0.223583  
463.500000	-0.215257  
464.000000	-0.177727  
464.500000	-0.025984  
465.000000	0.057303   
465.500000	0.044242   
466.000000	-0.113212  
466.500000	-0.224946  
467.000000	-0.327454  
467.500000	-0.450878  
468.000000	-0.465530  
468.500000	-0.322045  
469.000000	-0.113075  
469.500000	-0.036325  
470.000000	-0.126856  
470.500000	-0.290007  
471.000000	-0.282969  
471.500000	-0.137386  
472.000000	0.092515   
472.500000	0.089772   
473.000000	-0.035446  
473.500000	-0.137030  
474.000000	-0.063568  
474.500000	-0.039742  
475.000000	0.052939   
475.500000	0.126507   
476.000000	0.153189   
476.500000	-0.065583  
477.000000	-0.235371  
477.500000	-0.122136  
478.000000	0.104219   
478.500000	0.076310   
479.000000	-0.126810  
479.500000	-0.271189  
480.000000	-0.257053  
480.500000	-0.180318  
481.000000	-0.101742  
481.500000	0.030378   
482.000000	0.150000   
482.500000	0.219530   
483.000000	0.151356   
483.500000	0.073181   
484.000000	0.053250   
484.500000	0.133143   
485.000000	0.067606   
485.500000	-0.121121  
486.000000	-0.316037  
486.500000	-0.248280  
487.000000	-0.027803  
487.500000	0.198121   
488.000000	0.151681   
488.500000	-0.018159  
489.000000	-0.219848  
489.500000	-0.268371  
490.000000	-0.238954  
490.500000	-0.108704  
491.000000	-0.013825  
491.500000	0.068636   
492.000000	0.035704   
492.500000	-0.056757  
493.000000	-0.143196  
493.500000	-0.069250  
494.000000	0.022500   
494.500000	0.194454   
495.000000	0.217424   
495.500000	0.166136   
496.000000	0.028886   
496.500000	-0.098893  
497.000000	-0.013939  
497.500000	0.236333   
498.000000	0.505499   
498.500000	0.508530   
499.000000	0.421734   
499.500000	0.402416   
500.000000	0.671454   
500.500000	0.858553   
501.000000	0.799946   
501.500000	0.642174   
502.000000	0.670151   
502.500000	0.796030   
503.000000	0.894992   
503.500000	0.896121   
504.000000	1.028189   
504.500000	1.198848   
505.000000	1.339553   
505.500000	1.307174   
506.000000	1.238090   
506.500000	1.260825   
507.000000	1.459007   
507.500000	1.652636   
508.000000	1.783265   
508.500000	1.829901   
509.000000	1.962871   
509.500000	2.132787   
510.000000	2.344500   
510.500000	2.525333   
511.000000	2.706515   
511.500000	2.745750   
512.000000	2.623333   
512.500000	2.612416   
513.000000	2.757159   
513.500000	3.029083   
514.000000	3.094901   
514.500000	3.050174   
515.000000	3.070242   
515.500000	3.277484   
516.000000	3.418030   
516.500000	3.295257   
517.000000	3.150159   
517.500000	3.166272   
518.000000	3.367946   
518.500000	3.427151   
519.000000	3.302090   
519.500000	3.257628   
520.000000	3.332363   
520.500000	3.397977   
521.000000	3.359022   
521.500000	3.361696   
522.000000	3.344621   
522.500000	3.252886   
523.000000	3.177969   
523.500000	3.141189   
524.000000	3.290333   
524.500000	3.319280   
525.000000	3.286325   
525.500000	3.068909   
526.000000	3.019310   
526.500000	3.049590   
527.000000	3.323765   
527.500000	3.488242   
528.000000	3.546090   
528.500000	3.355106   
529.000000	3.187053   
529.500000	3.104712   
530.000000	3.148143   
530.500000	3.030833   
531.000000	2.981287   
531.500000	3.102749   
532.000000	3.218484   
532.500000	3.273401   
533.000000	3.243977   
533.500000	3.218340   
534.000000	3.157090   
534.500000	3.141803   
535.000000	3.093803   
535.500000	2.944681   
536.000000	2.677515   
536.500000	2.580750   
537.000000	2.842825   
537.500000	3.076742   
538.000000	3.308098   
538.500000	3.536916   
539.000000	3.779893   
539.500000	3.859090   
540.000000	3.692022   
540.500000	3.516757   
541.000000	3.532939   
541.500000	3.865477   
542.000000	4.001840   
542.500000	4.090068   
543.000000	4.053999   
543.500000	4.125234   
544.000000	4.010757   
544.500000	3.758143   
545.000000	3.509378   
545.500000	3.664696   
546.000000	3.854780   
546.500000	3.945356   
547.000000	3.760818   
547.500000	3.701492   
548.000000	3.708416   
548.500000	3.778287   
549.000000	3.790537   
549.500000	4.014462   
550.000000	4.393075   
550.500000	4.516772   
551.000000	4.341477   
551.500000	4.012871   
552.000000	3.975530   
552.500000	3.996477   
553.000000	4.154856   
553.500000	4.352348   
554.000000	4.548992   
554.500000	4.639045   
555.000000	4.654757   
555.500000	4.732515   
556.000000	4.644045   
556.500000	4.478916   
557.000000	4.361363   
557.500000	4.661545   
558.000000	4.882151   
558.500000	4.868765   
559.000000	4.624401   
559.500000	4.511606   
560.000000	4.594712   
560.500000	4.496674   
561.000000	4.250780   
561.500000	4.122340   
562.000000	4.407492   
562.500000	4.721212   
563.000000	4.862340   
563.500000	4.610878   
564.000000	4.330704   
564.500000	3.984401   
565.000000	3.927984   
565.500000	4.161484   
566.000000	4.440681   
566.500000	4.577583   
567.000000	4.535833   
567.500000	4.421969   
568.000000	4.184553   
568.500000	4.199492   
569.000000	4.256848   
569.500000	4.453590   
570.000000	4.349219   
570.500000	4.316909   
571.000000	4.354871   
571.500000	4.484295   
572.000000	4.541500   
572.500000	4.633416   
573.000000	4.692636   
573.500000	4.688053   
574.000000	4.668333   
574.500000	4.640749   
575.000000	4.710803   
575.500000	4.667121   
576.000000	4.706166   
576.500000	4.550371   
577.000000	4.458825   
577.500000	4.325159   
578.000000	4.379075   
578.500000	4.501818   
579.000000	4.767196   
579.500000	4.994249   
580.000000	5.017560   
580.500000	4.849075   
581.000000	4.652628   
581.500000	4.611704   
582.000000	4.553969   
582.500000	4.518606   
583.000000	4.728189   
583.500000	5.017772   
584.000000	5.026992   
584.500000	4.879280   
585.000000	4.796492   
585.500000	5.001189   
586.000000	5.041318   
586.500000	5.066696   
587.000000	4.988310   
587.500000	5.044401   
588.000000	4.941848   
588.500000	4.804727   
589.000000	4.698909   
589.500000	4.832030   
590.000000	5.196250   
590.500000	5.470507   
591.000000	5.578992   
591.500000	5.528340   
592.000000	5.626818   
592.500000	5.904295   
593.000000	6.199159   
593.500000	6.293325   
594.000000	6.104772   
594.500000	5.919909   
595.000000	5.834924   
595.500000	5.986348   
596.000000	6.176030   
596.500000	6.350568   
597.000000	6.433696   
597.500000	6.474583   
598.000000	6.569469   
598.500000	6.447484   
599.000000	6.197416   
599.500000	6.164696   
600.000000	6.543742   
600.500000	6.937681   
601.000000	7.138734   
601.500000	7.243303   
602.000000	7.340803   
602.500000	7.319871   
603.000000	7.252704   
603.500000	7.352121   
604.000000	7.534022   
604.500000	7.800666   
605.000000	8.262977   
605.500000	8.833507   
606.000000	9.042340   
606.500000	8.842651   
607.000000	8.577553   
607.500000	8.639893   
608.000000	8.977833   
608.500000	9.134977   
609.000000	9.208750   
609.500000	9.206409   
610.000000	9.640757   
610.500000	9.855651   
611.000000	9.695060   
611.500000	9.010083   
612.000000	8.666712   
612.500000	8.749151   
613.000000	8.767060   
613.500000	8.721439   
614.000000	8.610068   
614.500000	8.746560   
615.000000	8.497068   
615.500000	8.300401   
616.000000	8.145265   
616.500000	8.312280   
617.000000	8.099484   
617.500000	7.921136   
618.000000	8.100719   
618.500000	8.674022   
619.000000	8.976295   
619.500000	8.998765   
620.000000	9.173954   
620.500000	9.612530   
621.000000	9.924280   
621.500000	9.905318   
622.000000	9.911348   
622.500000	10.145439  
623.000000	10.580969  
623.500000	10.840992  
624.000000	11.182628  
624.500000	11.358840  
625.000000	11.568666  
625.500000	11.450181  
626.000000	11.633053  
626.500000	12.056280  
627.000000	12.711416  
627.500000	13.031265  
628.000000	13.390734  
628.500000	13.843636  
629.000000	14.281212  
629.500000	14.572386  
630.000000	14.853803  
630.500000	15.343386  
631.000000	15.938484  
631.500000	16.423234  
632.000000	16.699530  
632.500000	16.685545  
633.000000	16.899090  
633.500000	17.898121  
634.000000	19.435734  
634.500000	20.070250  
635.000000	20.090356  
635.500000	20.177606  
636.000000	21.102818  
636.500000	21.960863  
637.000000	22.543446  
637.500000	22.896848  
638.000000	23.701962  
638.500000	24.510674  
639.000000	25.453833  
639.500000	26.323500  
640.000000	27.175810  
640.500000	28.139189  
641.000000	29.092477  
641.500000	30.119893  
642.000000	31.400477  
642.500000	33.028015  
643.000000	34.297893  
643.500000	34.885166  
644.000000	35.307318  
644.500000	36.400696  
645.000000	38.044310  
645.500000	39.201984  
646.000000	40.015969  
646.500000	40.641310  
647.000000	41.980924  
647.500000	43.258106  
648.000000	44.692901  
648.500000	45.907030  
649.000000	47.191931  
649.500000	48.633439  
650.000000	50.248318  
650.500000	51.698628  
651.000000	52.557553  
651.500000	53.447659  
652.000000	54.688939  
652.500000	56.727030  
653.000000	58.829053  
653.500000	60.944295  
654.000000	63.126507  
654.500000	65.076984  
655.000000	66.751568  
655.500000	68.458181  
656.000000	70.602287  
656.500000	72.455590  
657.000000	73.853356  
657.500000	75.406545  
658.000000	78.268484  
658.500000	81.138060  
659.000000	83.304696  
659.500000	84.904181  
660.000000	87.305689  
660.500000	89.810962  
661.000000	91.371469  
661.500000	91.538901  
662.000000	93.045416  
662.500000	95.969962  
663.000000	99.384333  
663.500000	101.731098 
664.000000	103.517659 
664.500000	105.439204 
665.000000	107.422863 
665.500000	109.335704 
666.000000	111.735439 
666.500000	113.941196 
667.000000	115.634477 
667.500000	118.047098 
668.000000	120.987166 
668.500000	124.474060 
669.000000	127.252856 
669.500000	129.146969 
670.000000	129.983166 
670.500000	130.741477 
671.000000	132.577015 
671.500000	135.509393 
672.000000	138.011613 
672.500000	139.795469 
673.000000	142.052560 
673.500000	144.250090 
674.000000	146.268371 
674.500000	147.228371 
675.000000	148.676250 
675.500000	151.374507 
676.000000	154.352151 
676.500000	156.812045 
677.000000	158.309446 
677.500000	159.527143 
678.000000	160.540325 
678.500000	162.428560 
679.000000	164.570992 
679.500000	166.980727 
680.000000	167.925098 
680.500000	168.706303 
681.000000	169.987121 
681.500000	172.017257 
682.000000	173.828909 
682.500000	174.554045 
683.000000	174.900204 
683.500000	175.570825 
684.000000	176.369045 
684.500000	176.372477 
685.000000	175.438659 
685.500000	174.799318 
686.000000	175.414333 
686.500000	177.415606 
687.000000	179.260068 
687.500000	180.347068 
688.000000	180.113833 
688.500000	179.459431 
689.000000	178.578833 
689.500000	177.543818 
690.000000	176.848666 
690.500000	175.970371 
691.000000	173.936318 
691.500000	171.716272 
692.000000	170.803424 
692.500000	171.053803 
693.000000	170.078386 
693.500000	167.923484 
694.000000	165.919181 
694.500000	165.361113 
695.000000	164.140060 
695.500000	162.289393 
696.000000	158.806628 
696.500000	155.459219 
697.000000	152.369545 
697.500000	150.578136 
698.000000	149.002765 
698.500000	146.886007 
699.000000	143.901636 
699.500000	140.844863 
700.000000	137.764204 
700.500000	135.368303 
701.000000	132.912848 
701.500000	129.625227 
702.000000	124.779871 
702.500000	120.229492 
703.000000	116.934954 
703.500000	115.258886 
704.000000	113.851946 
704.500000	112.028462 
705.000000	109.786840 
705.500000	106.620598 
706.000000	103.542727 
706.500000	100.584295 
707.000000	97.877098  
707.500000	95.377113  
708.000000	93.190053  
708.500000	91.727174  
709.000000	89.836265  
709.500000	87.188863  
710.000000	83.975174  
710.500000	81.351575  
711.000000	79.643765  
711.500000	78.575401  
712.000000	76.445765  
712.500000	73.471507  
713.000000	70.564810  
713.500000	68.986590  
714.000000	67.525969  
714.500000	65.448257  
715.000000	63.045318  
715.500000	61.951954  
716.000000	61.366977  
716.500000	60.097015  
717.000000	58.008037  
717.500000	55.447999  
718.000000	53.611712  
718.500000	52.088742  
719.000000	50.707734  
719.500000	48.562916  
720.000000	46.668196  
720.500000	45.393136  
721.000000	44.964863  
721.500000	43.939939  
722.000000	42.486719  
722.500000	40.757742  
723.000000	39.549250  
723.500000	38.369348  
724.000000	37.345484  
724.500000	36.333227  
725.000000	35.425143  
725.500000	34.348765  
726.000000	33.268848  
726.500000	32.462454  
727.000000	31.696401  
727.500000	30.946696  
728.000000	30.114000  
728.500000	29.681719  
729.000000	29.192356  
729.500000	28.571931  
730.000000	27.935553  
730.500000	27.465734  
731.000000	26.624318  
731.500000	25.488234  
732.000000	24.547265  
732.500000	24.064969  
733.000000	23.764522  
733.500000	23.338439  
734.000000	22.821439  
734.500000	22.319909  
735.000000	21.810371  
735.500000	21.142696  
736.000000	20.266537  
736.500000	19.517378  
737.000000	18.808128  
737.500000	18.183303  
738.000000	17.241181  
738.500000	16.857522  
739.000000	16.931053  
739.500000	17.302704  
740.000000	17.055909  
740.500000	16.591439  
741.000000	15.874083  
741.500000	15.133878  
742.000000	14.441371  
742.500000	14.080189  
743.000000	14.137689  
743.500000	14.233219  
744.000000	14.169621  
744.500000	13.780356  
745.000000	13.338795  
745.500000	12.873560  
746.000000	12.622454  
746.500000	12.595386  
747.000000	12.565628  
747.500000	12.440553  
748.000000	12.481598  
748.500000	12.547227  
749.000000	12.379992  
749.500000	11.812553  
750.000000	11.366848  
750.500000	11.072992  
751.000000	10.914689  
751.500000	10.527515  
752.000000	10.327984  
752.500000	10.242295  
753.000000	10.271136  
753.500000	10.195371  
754.000000	9.942166   
754.500000	9.487431   
755.000000	9.061393   
755.500000	8.708803   
756.000000	8.797901   
756.500000	8.861772   
757.000000	8.853969   
757.500000	8.366916   
758.000000	8.083356   
758.500000	7.975212   
759.000000	8.207439   
759.500000	8.251924   
760.000000	8.163212   
760.500000	7.792128   
761.000000	7.420553   
761.500000	7.364060   
762.000000	7.527924   
762.500000	7.482477   
763.000000	7.341522   
763.500000	7.212909   
764.000000	7.382174   
764.500000	7.326545   
765.000000	7.147250   
765.500000	6.869719   
766.000000	6.772924   
766.500000	6.507757   
767.000000	6.312257   
767.500000	6.300825   
768.000000	6.333287   
768.500000	6.192181   
769.000000	5.886446   
769.500000	5.859022   
770.000000	5.896984   
770.500000	5.917356   
771.000000	5.773515   
771.500000	5.784583   
772.000000	5.764643   
772.500000	5.878439   
773.000000	5.928553   
773.500000	5.828386   
774.000000	5.397409   
774.500000	4.951121   
775.000000	4.665386   
775.500000	4.638893   
776.000000	4.776340   
776.500000	4.854643   
777.000000	4.803568   
777.500000	4.739734   
778.000000	4.762606   
778.500000	4.777780   
779.000000	4.665765   
779.500000	4.429575   
780.000000	4.303931   
780.500000	4.113409   
781.000000	3.932954   
781.500000	3.820174   
782.000000	3.938325   
782.500000	4.102386   
783.000000	4.196098   
783.500000	4.013477   
784.000000	3.855424   
784.500000	3.749121   
785.000000	3.685628   
785.500000	3.502060   
786.000000	3.284606   
786.500000	3.159477   
787.000000	3.365795   
787.500000	3.579992   
788.000000	3.776037   
788.500000	3.613916   
789.000000	3.416742   
789.500000	3.245189   
790.000000	3.408507   
790.500000	3.605689   
791.000000	3.787106   
791.500000	3.654704   
792.000000	3.467522   
792.500000	3.216924   
793.000000	3.068212   
793.500000	2.930348   
794.000000	2.992295   
794.500000	3.002098   
795.000000	3.043757   
795.500000	2.967257   
796.000000	2.950742   
796.500000	2.873613   
797.000000	2.813962   
797.500000	2.766954   
798.000000	2.816439   
798.500000	2.882310   
799.000000	2.883090   
799.500000	2.911636   
800.000000	2.942969   
800.500000	2.916931   
801.000000	2.802045   
801.500000	2.685219   
802.000000	2.665643   
802.500000	2.731272   
803.000000	2.787113   
803.500000	2.839250   
804.000000	2.901696   
804.500000	3.060878   
805.000000	3.189143   
805.500000	3.181469   
806.000000	2.915818   
806.500000	2.610696   
807.000000	2.413181   
807.500000	2.420348   
808.000000	2.485469   
808.500000	2.570030   
809.000000	2.644204   
809.500000	2.716772   
810.000000	2.729068   
810.500000	2.677575   
811.000000	2.557734   
811.500000	2.496765   
812.000000	2.495128   
812.500000	2.569666   
813.000000	2.628287   
813.500000	2.602113   
814.000000	2.566696   
814.500000	2.637219   
815.000000	2.765681   
815.500000	2.840530   
816.000000	2.885848   
816.500000	2.899992   
817.000000	2.863780   
817.500000	2.702560   
818.000000	2.570143   
818.500000	2.704825   
819.000000	2.868909   
819.500000	2.902878   
820.000000	2.797636   
820.500000	2.860060   
821.000000	2.955469   
821.500000	2.964803   
822.000000	2.864196   
822.500000	2.854477   
823.000000	2.942696   
823.500000	2.886750   
824.000000	2.893901   
824.500000	2.986590   
825.000000	3.210060   
825.500000	3.296083   
826.000000	3.257280   
826.500000	3.164681   
827.000000	3.104303   
827.500000	3.007803   
828.000000	2.823893   
828.500000	2.674212   
829.000000	2.502636   
829.500000	2.353189   
830.000000	2.332280   
830.500000	2.515712   
831.000000	2.693643   
831.500000	2.574121   
832.000000	2.330143   
832.500000	2.194803   
833.000000	2.117583   
833.500000	1.836545   
834.000000	1.581901   
834.500000	1.380295   
835.000000	1.285636   
835.500000	1.127780   
836.000000	1.129287   
836.500000	1.085333   
837.000000	1.087553   
837.500000	1.097484   
838.000000	1.328977   
838.500000	1.392121   
839.000000	1.234780   
839.500000	1.042416   
840.000000	1.023386   
840.500000	0.957818   
841.000000	0.783674   
841.500000	0.678893   
842.000000	0.772757   
842.500000	0.912704   
843.000000	0.959818   
843.500000	0.931704   
844.000000	0.949606   
844.500000	0.944378   
845.000000	0.905840   
845.500000	0.811787   
846.000000	0.725499   
846.500000	0.639318   
847.000000	0.588780   
847.500000	0.522666   
848.000000	0.522227   
848.500000	0.570886   
849.000000	0.720810   
849.500000	0.825363   
850.000000	0.817878   
850.500000	0.708386   
851.000000	0.640280   
851.500000	0.602083   
852.000000	0.522363   
852.500000	0.412371   
853.000000	0.351378   
853.500000	0.389795   
854.000000	0.452507   
854.500000	0.372348   
855.000000	0.223234   
855.500000	0.095227   
856.000000	0.125537   
856.500000	0.189568   
857.000000	0.267583   
857.500000	0.282272   
858.000000	0.274333   
858.500000	0.140833   
859.000000	0.029098   
859.500000	0.022962   
860.000000	0.083583   
860.500000	0.007712   
861.000000	-0.140787  
861.500000	-0.221674  
862.000000	-0.145022  
862.500000	-0.009015  
863.000000	0.084295   
863.500000	0.159583   
864.000000	0.108272   
864.500000	-0.029818  
865.000000	-0.126810  
865.500000	-0.018787  
866.000000	0.123090   
866.500000	0.114924   
867.000000	0.021022   
867.500000	0.065257   
868.000000	0.186825   
868.500000	0.167356   
869.000000	0.004446   
869.500000	-0.150825  
870.000000	-0.127863  
870.500000	-0.034121  
871.000000	0.071189   
871.500000	0.058250   
872.000000	0.068318   
872.500000	0.085310   
873.000000	0.166909   
873.500000	0.161022   
874.000000	0.148924   
874.500000	0.038931   
875.000000	-0.103007  
875.500000	-0.242969  
876.000000	-0.205530  
876.500000	-0.100492  
877.000000	0.015840   
877.500000	-0.021810  
878.000000	-0.029363  
878.500000	-0.119159  
879.000000	-0.098999  
879.500000	-0.060810  
880.000000	0.082553   
880.500000	0.085363   
881.000000	0.003234   
881.500000	-0.100507  
882.000000	-0.032719  
882.500000	-0.033492  
883.000000	-0.123666  
883.500000	-0.225439  
884.000000	-0.082265  
884.500000	0.072954   
885.000000	0.161515   
885.500000	0.109909   
886.000000	0.104924   
886.500000	0.069030   
887.000000	0.044848   
887.500000	0.051893   
888.000000	0.022909   
888.500000	0.007325   
889.000000	-0.078992  
889.500000	-0.047977  
890.000000	-0.013189  
890.500000	0.065227   
891.000000	0.041878   
891.500000	-0.042681  
892.000000	-0.167136  
892.500000	-0.207500  
893.000000	-0.143060  
893.500000	-0.089575  
894.000000	-0.101189  
894.500000	-0.201098  
895.000000	-0.173143  
895.500000	-0.056484  
896.000000	0.025681   
896.500000	0.028393   
897.000000	0.050901   
897.500000	0.127962   
898.000000	0.134696   
898.500000	0.093924   
899.000000	0.055712   
899.500000	0.067484   
900.000000	-0.003098  
900.500000	-0.150000  

