PE FL                   SPECTRUM    ASCII       PEDS        1.60        
  -1
S12#07.SP
24/04/15
15:04:50.00
24/04/15
15:06:15.00
Jan

900.500000
1









LS55
405.00
5.00
5.00
SCAN
1
20
100
100
0
400
0
1
0
1
5
ON
900 405 
1 0 0
#HDR
-1
-1
#GR
NM

0.00002384185791015625
0.0
450.000000
0.500000
902
8
324.252742
-0.378962
#DATA
450.000000	0.268000   
450.500000	0.006363   
451.000000	-0.148469  
451.500000	-0.107439  
452.000000	0.023704   
452.500000	0.238666   
453.000000	0.321280   
453.500000	0.356280   
454.000000	0.204401   
454.500000	0.107113   
455.000000	-0.062477  
455.500000	-0.003545  
456.000000	0.084681   
456.500000	0.235878   
457.000000	0.231969   
457.500000	0.216000   
458.000000	0.163575   
458.500000	0.108484   
459.000000	0.050909   
459.500000	0.064545   
460.000000	0.140409   
460.500000	0.153196   
461.000000	0.119378   
461.500000	0.144022   
462.000000	0.241628   
462.500000	0.362803   
463.000000	0.412719   
463.500000	0.354909   
464.000000	0.167106   
464.500000	-0.110689  
465.000000	-0.269143  
465.500000	-0.139916  
466.000000	0.054712   
466.500000	0.163409   
467.000000	0.139174   
467.500000	0.170022   
468.000000	0.188893   
468.500000	0.274598   
469.000000	0.336310   
469.500000	0.433454   
470.000000	0.335401   
470.500000	0.244500   
471.000000	0.180151   
471.500000	0.166575   
472.000000	0.037022   
472.500000	0.003151   
473.000000	0.031613   
473.500000	0.097545   
474.000000	-0.016848  
474.500000	-0.069499  
475.000000	-0.037280  
475.500000	0.067689   
476.000000	0.063545   
476.500000	0.068583   
477.000000	0.077181   
477.500000	0.087409   
478.000000	-0.010689  
478.500000	-0.057333  
479.000000	-0.048734  
479.500000	0.009856   
480.000000	-0.156825  
480.500000	-0.361325  
481.000000	-0.378962  
481.500000	-0.044363  
482.000000	0.181363   
482.500000	0.161060   
483.000000	0.048833   
483.500000	0.176030   
484.000000	0.429568   
484.500000	0.438416   
485.000000	0.253992   
485.500000	0.067939   
486.000000	0.122750   
486.500000	0.131037   
487.000000	0.076166   
487.500000	-0.019492  
488.000000	-0.033500  
488.500000	0.024606   
489.000000	0.093840   
489.500000	0.319348   
490.000000	0.291712   
490.500000	0.063734   
491.000000	-0.256174  
491.500000	-0.136659  
492.000000	0.176537   
492.500000	0.525674   
493.000000	0.600159   
493.500000	0.463719   
494.000000	0.241378   
494.500000	0.174984   
495.000000	0.258348   
495.500000	0.348098   
496.000000	0.376219   
496.500000	0.478106   
497.000000	0.560143   
497.500000	0.567825   
498.000000	0.471893   
498.500000	0.419575   
499.000000	0.434795   
499.500000	0.593810   
500.000000	0.797181   
500.500000	0.938287   
501.000000	0.973181   
501.500000	0.957916   
502.000000	0.949492   
502.500000	1.140439   
503.000000	1.427659   
503.500000	1.675590   
504.000000	1.462318   
504.500000	1.350265   
505.000000	1.424257   
505.500000	1.788151   
506.000000	1.808325   
506.500000	1.698992   
507.000000	1.608734   
507.500000	1.778386   
508.000000	2.018696   
508.500000	2.322772   
509.000000	2.581340   
509.500000	2.732734   
510.000000	2.703727   
510.500000	2.576136   
511.000000	2.474340   
511.500000	2.682916   
512.000000	2.958151   
512.500000	3.258840   
513.000000	3.318098   
513.500000	3.304621   
514.000000	3.146825   
514.500000	3.178560   
515.000000	3.280333   
515.500000	3.393424   
516.000000	3.084575   
516.500000	3.006742   
517.000000	3.339727   
517.500000	4.024068   
518.000000	4.136984   
518.500000	4.056196   
519.000000	3.959325   
519.500000	4.166287   
520.000000	4.050022   
520.500000	3.890174   
521.000000	3.695818   
521.500000	3.736643   
522.000000	3.622871   
522.500000	3.618765   
523.000000	3.587068   
523.500000	3.725750   
524.000000	3.845136   
524.500000	4.073242   
525.000000	4.118939   
525.500000	4.173939   
526.000000	4.197515   
526.500000	4.470757   
527.000000	4.740848   
527.500000	5.069992   
528.000000	5.353583   
528.500000	5.645492   
529.000000	5.798090   
529.500000	5.864409   
530.000000	5.738848   
530.500000	5.480553   
531.000000	5.490469   
531.500000	5.907310   
532.000000	6.440280   
532.500000	6.884287   
533.000000	7.213863   
533.500000	7.460007   
534.000000	7.494848   
534.500000	7.516189   
535.000000	7.940037   
535.500000	8.761742   
536.000000	9.304098   
536.500000	9.403318   
537.000000	9.569363   
537.500000	10.074439  
538.000000	10.956287  
538.500000	11.903583  
539.000000	12.505007  
539.500000	13.029712  
540.000000	13.411787  
540.500000	14.075848  
541.000000	14.388333  
541.500000	14.614939  
542.000000	14.390757  
542.500000	14.627916  
543.000000	14.567886  
543.500000	14.460454  
544.000000	13.916674  
544.500000	13.288537  
545.000000	12.411886  
545.500000	11.632659  
546.000000	11.108530  
546.500000	10.889886  
547.000000	10.602795  
547.500000	9.802492   
548.000000	9.001780   
548.500000	8.257000   
549.000000	7.719045   
549.500000	7.134803   
550.000000	6.899613   
550.500000	6.616575   
551.000000	6.194303   
551.500000	5.367310   
552.000000	4.888348   
552.500000	4.759727   
553.000000	4.732181   
553.500000	4.532954   
554.000000	4.213666   
554.500000	3.922643   
555.000000	3.658310   
555.500000	3.598765   
556.000000	3.550530   
556.500000	3.742886   
557.000000	3.786416   
557.500000	3.981530   
558.000000	4.001037   
558.500000	4.014401   
559.000000	3.671189   
559.500000	3.347015   
560.000000	3.245439   
560.500000	3.446621   
561.000000	3.546780   
561.500000	3.352424   
562.000000	3.131696   
562.500000	3.050924   
563.000000	3.138628   
563.500000	3.324833   
564.000000	3.496333   
564.500000	3.525439   
565.000000	3.446537   
565.500000	3.497606   
566.000000	3.748227   
566.500000	3.809560   
567.000000	3.607643   
567.500000	3.264340   
568.000000	3.170143   
568.500000	3.319613   
569.000000	3.429939   
569.500000	3.514409   
570.000000	3.637931   
570.500000	3.855772   
571.000000	3.857651   
571.500000	3.678712   
572.000000	3.395787   
572.500000	3.226696   
573.000000	3.198553   
573.500000	3.245939   
574.000000	3.399628   
574.500000	3.474992   
575.000000	3.491484   
575.500000	3.503863   
576.000000	3.526378   
576.500000	3.530840   
577.000000	3.587250   
577.500000	3.691568   
578.000000	3.663250   
578.500000	3.538939   
579.000000	3.337189   
579.500000	3.334696   
580.000000	3.491969   
580.500000	3.750310   
581.000000	3.756856   
581.500000	3.667560   
582.000000	3.580037   
582.500000	3.801371   
583.000000	3.946340   
583.500000	4.027446   
584.000000	3.860848   
584.500000	3.863030   
585.000000	4.015446   
585.500000	4.258757   
586.000000	4.185083   
586.500000	3.883363   
587.000000	3.596704   
587.500000	3.640719   
588.000000	3.966969   
588.500000	4.093909   
589.000000	3.955204   
589.500000	3.631090   
590.000000	3.579348   
590.500000	3.894015   
591.000000	4.201818   
591.500000	4.292181   
592.000000	4.471212   
592.500000	4.749522   
593.000000	4.950636   
593.500000	4.925689   
594.000000	4.886249   
594.500000	4.768916   
595.000000	4.625287   
595.500000	4.380060   
596.000000	4.478083   
596.500000	4.729075   
597.000000	5.056590   
597.500000	5.309303   
598.000000	5.501143   
598.500000	5.609628   
599.000000	5.668840   
599.500000	5.634643   
600.000000	5.566848   
600.500000	5.407803   
601.000000	5.492234   
601.500000	5.809045   
602.000000	6.251439   
602.500000	6.443636   
603.000000	6.599689   
603.500000	6.869174   
604.000000	7.389575   
604.500000	7.457977   
605.000000	7.158431   
605.500000	6.896515   
606.000000	7.128242   
606.500000	7.301606   
607.000000	7.445659   
607.500000	7.490219   
608.000000	7.902159   
608.500000	8.336318   
609.000000	8.685924   
609.500000	9.002893   
610.000000	9.408840   
610.500000	9.645931   
611.000000	9.740757   
611.500000	9.819590   
612.000000	10.354734  
612.500000	10.839946  
613.000000	11.111984  
613.500000	10.966719  
614.000000	11.251272  
614.500000	11.673272  
615.000000	12.279500  
615.500000	12.615803  
616.000000	13.094598  
616.500000	13.488424  
617.000000	14.035825  
617.500000	14.404015  
618.000000	14.848689  
618.500000	14.870393  
619.000000	15.083310  
619.500000	15.366446  
620.000000	16.362068  
620.500000	17.763007  
621.000000	19.357477  
621.500000	20.424393  
622.000000	21.111719  
622.500000	21.091250  
623.000000	20.941871  
623.500000	20.921681  
624.000000	21.612810  
624.500000	22.950840  
625.000000	24.358280  
625.500000	25.228037  
626.000000	25.883606  
626.500000	26.524818  
627.000000	27.330159  
627.500000	28.344136  
628.000000	29.557060  
628.500000	30.889772  
629.000000	32.341204  
629.500000	33.560083  
630.000000	34.496128  
630.500000	35.149946  
631.000000	35.966939  
631.500000	37.331378  
632.000000	39.198083  
632.500000	41.223954  
633.000000	43.061303  
633.500000	44.725909  
634.000000	46.314931  
634.500000	47.992901  
635.000000	49.868931  
635.500000	51.824946  
636.000000	54.074901  
636.500000	56.035999  
637.000000	57.368189  
637.500000	58.176090  
638.000000	60.396719  
638.500000	63.429984  
639.000000	66.451916  
639.500000	68.136310  
640.000000	70.335469  
640.500000	73.291772  
641.000000	75.837765  
641.500000	77.131121  
642.000000	78.449083  
642.500000	81.788674  
643.000000	86.442340  
643.500000	90.448340  
644.000000	92.686840  
644.500000	94.281946  
645.000000	96.464439  
645.500000	99.315340  
646.000000	102.744825 
646.500000	106.184280 
647.000000	110.115878 
647.500000	113.817257 
648.000000	118.036742 
648.500000	120.914166 
649.000000	122.438984 
649.500000	123.263424 
650.000000	125.616962 
650.500000	129.703060 
651.000000	134.324666 
651.500000	139.063825 
652.000000	143.490272 
652.500000	147.617871 
653.000000	150.004666 
653.500000	153.125219 
654.000000	156.525439 
654.500000	161.689409 
655.000000	166.260393 
655.500000	170.521083 
656.000000	174.421939 
656.500000	178.632219 
657.000000	182.572424 
657.500000	185.989477 
658.000000	189.039651 
658.500000	193.222636 
659.000000	199.044787 
659.500000	204.909765 
660.000000	209.622401 
660.500000	212.017242 
661.000000	213.514196 
661.500000	216.338931 
662.000000	220.809765 
662.500000	226.160234 
663.000000	231.192303 
663.500000	235.251666 
664.000000	237.970886 
664.500000	241.057378 
665.000000	244.732083 
665.500000	249.049757 
666.000000	251.739984 
666.500000	255.003356 
667.000000	258.791272 
667.500000	263.501651 
668.000000	267.936575 
668.500000	271.768318 
669.000000	274.355272 
669.500000	275.996333 
670.000000	278.746719 
670.500000	282.600681 
671.000000	285.455037 
671.500000	286.074803 
672.000000	287.386250 
672.500000	290.800113 
673.000000	295.507515 
673.500000	299.979196 
674.000000	303.213333 
674.500000	306.190181 
675.000000	307.964439 
675.500000	308.532416 
676.000000	308.676803 
676.500000	310.588575 
677.000000	312.924848 
677.500000	315.270106 
678.000000	316.646295 
678.500000	318.164537 
679.000000	319.007174 
679.500000	319.325621 
680.000000	320.095984 
680.500000	321.886765 
681.000000	323.082636 
681.500000	322.388772 
682.000000	320.798242 
682.500000	318.881515 
683.000000	318.774704 
683.500000	319.510598 
684.000000	320.925522 
684.500000	320.582939 
685.000000	319.986340 
685.500000	320.038492 
686.000000	322.651840 
686.500000	324.252742 
687.000000	322.871106 
687.500000	319.095606 
688.000000	314.985007 
688.500000	310.603371 
689.000000	306.615545 
689.500000	303.449825 
690.000000	301.664189 
690.500000	299.350068 
691.000000	296.245219 
691.500000	292.425780 
692.000000	288.948371 
692.500000	283.561189 
693.000000	277.582696 
693.500000	272.666068 
694.000000	270.531015 
694.500000	268.737060 
695.000000	263.318810 
695.500000	254.471863 
696.000000	247.485484 
696.500000	243.997666 
697.000000	241.065318 
697.500000	236.678189 
698.000000	231.607045 
698.500000	226.545166 
699.000000	220.913393 
699.500000	214.271181 
700.000000	208.714962 
700.500000	204.115265 
701.000000	199.894946 
701.500000	194.917704 
702.000000	189.376090 
702.500000	183.837348 
703.000000	179.296780 
703.500000	175.283522 
704.000000	170.716401 
704.500000	165.806984 
705.000000	161.262250 
705.500000	158.041234 
706.000000	154.319090 
706.500000	149.738507 
707.000000	144.926250 
707.500000	141.005045 
708.000000	137.920863 
708.500000	134.046371 
709.000000	129.480325 
709.500000	124.861204 
710.000000	121.040681 
710.500000	117.554439 
711.000000	115.137303 
711.500000	112.355674 
712.000000	109.791128 
712.500000	106.685719 
713.000000	103.488962 
713.500000	100.407136 
714.000000	97.812636  
714.500000	94.686992  
715.000000	91.011037  
715.500000	87.143227  
716.000000	84.220439  
716.500000	82.178393  
717.000000	79.796651  
717.500000	77.436333  
718.000000	75.007287  
718.500000	73.652401  
719.000000	72.343840  
719.500000	70.929439  
720.000000	67.985954  
720.500000	65.749681  
721.000000	63.458484  
721.500000	61.765924  
722.000000	59.058113  
722.500000	56.930787  
723.000000	55.448462  
723.500000	54.463477  
724.000000	52.825393  
724.500000	50.449098  
725.000000	48.489462  
725.500000	47.587333  
726.000000	47.597939  
726.500000	46.872356  
727.000000	44.899113  
727.500000	42.422992  
728.000000	40.388621  
728.500000	39.031022  
729.000000	38.259431  
729.500000	37.750606  
730.000000	36.885295  
730.500000	35.447462  
731.000000	34.046106  
731.500000	33.002030  
732.000000	32.622045  
732.500000	31.736583  
733.000000	30.471454  
733.500000	29.048022  
734.000000	28.264212  
734.500000	27.699886  
735.000000	27.101227  
735.500000	26.078439  
736.000000	25.013681  
736.500000	24.495507  
737.000000	24.523265  
737.500000	24.408893  
738.000000	23.397568  
738.500000	22.272643  
739.000000	21.549053  
739.500000	21.545992  
740.000000	21.165863  
740.500000	20.370106  
741.000000	19.378946  
741.500000	18.871424  
742.000000	18.537143  
742.500000	18.209469  
743.000000	17.692613  
743.500000	17.019015  
744.000000	16.239962  
744.500000	15.568401  
745.000000	15.254939  
745.500000	15.430000  
746.000000	15.561068  
746.500000	15.265818  
747.000000	14.590386  
747.500000	13.872121  
748.000000	13.397606  
748.500000	13.141545  
749.000000	12.891848  
749.500000	12.584878  
750.000000	12.385901  
750.500000	12.291704  
751.000000	12.252128  
751.500000	12.019901  
752.000000	11.625613  
752.500000	11.496484  
753.000000	11.618310  
753.500000	11.515795  
754.000000	10.934659  
754.500000	10.344916  
755.000000	9.949333   
755.500000	9.528303   
756.000000	9.215242   
756.500000	8.974818   
757.000000	8.915734   
757.500000	8.735121   
758.000000	8.596712   
758.500000	8.430893   
759.000000	8.222651   
759.500000	7.798696   
760.000000	7.413977   
760.500000	7.063075   
761.000000	6.949462   
761.500000	7.053113   
762.000000	7.158121   
762.500000	7.249257   
763.000000	7.348212   
763.500000	7.190803   
764.000000	6.804378   
764.500000	6.514257   
765.000000	6.513227   
765.500000	6.683674   
766.000000	6.580712   
766.500000	6.291128   
767.000000	6.089393   
767.500000	6.047545   
768.000000	6.032462   
768.500000	5.722053   
769.000000	5.292257   
769.500000	5.008121   
770.000000	5.129287   
770.500000	5.427121   
771.000000	5.646765   
771.500000	5.667318   
772.000000	5.501712   
772.500000	5.354871   
773.000000	5.064765   
773.500000	4.891143   
774.000000	4.769628   
774.500000	4.742507   
775.000000	4.587159   
775.500000	4.540833   
776.000000	4.668992   
776.500000	4.765083   
777.000000	4.459136   
777.500000	3.979250   
778.000000	3.698356   
778.500000	3.715310   
779.000000	3.846840   
779.500000	3.957037   
780.000000	3.964765   
780.500000	3.868704   
781.000000	3.865234   
781.500000	3.810325   
782.000000	3.703196   
782.500000	3.522348   
783.000000	3.441856   
783.500000	3.422106   
784.000000	3.441424   
784.500000	3.417174   
785.000000	3.396242   
785.500000	3.370227   
786.000000	3.396007   
786.500000	3.450696   
787.000000	3.454606   
787.500000	3.327068   
788.000000	3.225212   
788.500000	3.088181   
789.000000	3.045575   
789.500000	3.012515   
790.000000	3.053303   
790.500000	3.031234   
791.000000	3.104969   
791.500000	3.189522   
792.000000	3.305651   
792.500000	3.288545   
793.000000	3.223037   
793.500000	3.059606   
794.000000	2.957628   
794.500000	2.841681   
795.000000	2.761037   
795.500000	2.647333   
796.000000	2.683053   
796.500000	2.870250   
797.000000	3.067856   
797.500000	3.111015   
798.000000	2.971424   
798.500000	2.933363   
799.000000	2.911371   
799.500000	2.913522   
800.000000	2.753803   
800.500000	2.703787   
801.000000	2.636500   
801.500000	2.566651   
802.000000	2.369871   
802.500000	2.438984   
803.000000	2.693689   
803.500000	2.869719   
804.000000	2.777977   
804.500000	2.544818   
805.000000	2.392848   
805.500000	2.294151   
806.000000	2.264727   
806.500000	2.135090   
807.000000	2.079810   
807.500000	1.963727   
808.000000	2.027568   
808.500000	2.097651   
809.000000	2.223454   
809.500000	2.288522   
810.000000	2.257621   
810.500000	2.189537   
811.000000	2.160378   
811.500000	2.228356   
812.000000	2.162393   
812.500000	2.085136   
813.000000	1.894810   
813.500000	1.852454   
814.000000	1.820212   
814.500000	1.814924   
815.000000	1.668848   
815.500000	1.558075   
816.000000	1.536871   
816.500000	1.586492   
817.000000	1.587628   
817.500000	1.719765   
818.000000	1.919439   
818.500000	1.887939   
819.000000	1.686045   
819.500000	1.717500   
820.000000	1.967196   
820.500000	2.126606   
821.000000	2.087871   
821.500000	2.126196   
822.000000	2.302212   
822.500000	2.465659   
823.000000	2.540386   
823.500000	2.547590   
824.000000	2.559522   
824.500000	2.624159   
825.000000	2.795818   
825.500000	2.761037   
826.000000	2.543643   
826.500000	2.295659   
827.000000	2.341939   
827.500000	2.437856   
828.000000	2.259227   
828.500000	2.023689   
829.000000	1.938871   
829.500000	2.073068   
830.000000	1.902825   
830.500000	1.608053   
831.000000	1.411090   
831.500000	1.474371   
832.000000	1.455969   
832.500000	1.359500   
833.000000	1.247151   
833.500000	1.135340   
834.000000	1.065348   
834.500000	1.033545   
835.000000	1.076621   
835.500000	1.094568   
836.000000	1.096431   
836.500000	1.112704   
837.000000	1.171568   
837.500000	1.108030   
838.000000	0.894174   
838.500000	0.744818   
839.000000	0.703484   
839.500000	0.785068   
840.000000	0.756977   
840.500000	0.784439   
841.000000	0.825727   
841.500000	0.997643   
842.000000	0.992416   
842.500000	1.002727   
843.000000	0.896659   
843.500000	0.749015   
844.000000	0.512022   
844.500000	0.278840   
845.000000	0.158787   
845.500000	0.202681   
846.000000	0.351303   
846.500000	0.353734   
847.000000	0.251227   
847.500000	0.187606   
848.000000	0.365098   
848.500000	0.434507   
849.000000	0.247159   
849.500000	-0.054901  
850.000000	-0.138106  
850.500000	0.006439   
851.000000	0.146121   
851.500000	0.144977   
852.000000	0.069257   
852.500000	0.092409   
853.000000	0.211939   
853.500000	0.306643   
854.000000	0.281386   
854.500000	0.228689   
855.000000	0.159053   
855.500000	0.138651   
856.000000	0.079113   
856.500000	0.037568   
857.000000	-0.045462  
857.500000	-0.040818  
858.000000	-0.044916  
858.500000	0.017439   
859.000000	0.106090   
859.500000	0.237234   
860.000000	0.299340   
860.500000	0.249613   
861.000000	0.292500   
861.500000	0.331409   
862.000000	0.396871   
862.500000	0.230363   
863.000000	0.115757   
863.500000	0.039825   
864.000000	0.127325   
864.500000	0.155848   
865.000000	0.190280   
865.500000	0.161878   
866.000000	0.091583   
866.500000	0.057121   
867.000000	0.056416   
867.500000	0.156310   
868.000000	0.165053   
868.500000	0.058742   
869.000000	-0.071401  
869.500000	-0.044068  
870.000000	0.111613   
870.500000	0.158409   
871.000000	0.042659   
871.500000	-0.123643  
872.000000	-0.102674  
872.500000	-0.021060  
873.000000	0.026454   
873.500000	0.014371   
874.000000	-0.019469  
874.500000	0.010174   
875.000000	0.119454   
875.500000	0.220416   
876.000000	0.156810   
876.500000	0.003287   
877.000000	-0.097250  
877.500000	-0.115643  
878.000000	-0.133583  
878.500000	-0.142598  
879.000000	-0.107416  
879.500000	-0.026636  
880.000000	0.000636   
880.500000	0.014674   
881.000000	-0.037068  
881.500000	-0.046053  
882.000000	-0.101871  
882.500000	-0.042159  
883.000000	0.018757   
883.500000	0.091439   
884.000000	0.037628   
884.500000	-0.006242  
885.000000	-0.022613  
885.500000	0.032060   
886.000000	0.071181   
886.500000	0.108522   
887.000000	0.107719   
887.500000	0.048780   
888.000000	0.018325   
888.500000	0.067037   
889.000000	0.077204   
889.500000	-0.030621  
890.000000	-0.118007  
890.500000	-0.186371  
891.000000	-0.172484  
891.500000	-0.129954  
892.000000	0.014962   
892.500000	0.070265   
893.000000	0.019151   
893.500000	-0.073628  
894.000000	0.031803   
894.500000	0.044886   
895.000000	-0.073416  
895.500000	-0.234750  
896.000000	-0.174871  
896.500000	-0.050363  
897.000000	0.060537   
897.500000	0.050462   
898.000000	0.019075   
898.500000	-0.053348  
899.000000	-0.105810  
899.500000	-0.119022  
900.000000	-0.167431  
900.500000	-0.299999  

