PE FL                   SPECTRUM    ASCII       PEDS        1.60        
  -1
S12#19.SP
24/04/15
15:21:57.00
24/04/15
15:23:22.00
Jan

900.500000
1









LS55
405.00
5.00
5.00
SCAN
1
20
100
100
0
400
0
1
0
1
5
ON
900 405 
1 0 0
#HDR
-1
-1
#GR
NM

0.00002384185791015625
0.0
450.000000
0.500000
902
8
267.628833
-1.369000
#DATA
450.000000	0.435999   
450.500000	0.159765   
451.000000	0.073734   
451.500000	0.133719   
452.000000	0.156598   
452.500000	0.068515   
453.000000	0.066196   
453.500000	0.101393   
454.000000	0.140893   
454.500000	0.107128   
455.000000	0.045840   
455.500000	-0.027287  
456.000000	0.002462   
456.500000	0.089689   
457.000000	0.136515   
457.500000	0.077681   
458.000000	0.051568   
458.500000	0.091492   
459.000000	0.069772   
459.500000	-0.001439  
460.000000	-0.044893  
460.500000	-0.014015  
461.000000	-0.013484  
461.500000	-0.049037  
462.000000	-0.113992  
462.500000	-0.182280  
463.000000	-0.172424  
463.500000	-0.057053  
464.000000	0.008053   
464.500000	-0.104598  
465.000000	-0.309348  
465.500000	-0.396712  
466.000000	-0.392416  
466.500000	-0.201507  
467.000000	-0.059401  
467.500000	0.050742   
468.000000	-0.098030  
468.500000	-0.120424  
469.000000	-0.014803  
469.500000	0.285530   
470.000000	0.370136   
470.500000	0.251439   
471.000000	0.000507   
471.500000	-0.091583  
472.000000	-0.038037  
472.500000	0.066863   
473.000000	0.069378   
473.500000	0.025871   
474.000000	0.029325   
474.500000	0.152878   
475.000000	0.219492   
475.500000	0.186234   
476.000000	-0.045954  
476.500000	-0.171863  
477.000000	-0.182151  
477.500000	-0.047583  
478.000000	0.021462   
478.500000	0.137916   
479.000000	0.177878   
479.500000	0.160553   
480.000000	-0.024098  
480.500000	-0.235113  
481.000000	-0.351568  
481.500000	-0.329590  
482.000000	-0.256962  
482.500000	-0.236916  
483.000000	-0.175363  
483.500000	-0.017393  
484.000000	0.123780   
484.500000	0.122431   
485.000000	0.084818   
485.500000	0.085810   
486.000000	0.042159   
486.500000	-0.027750  
487.000000	0.058583   
487.500000	0.275446   
488.000000	0.378045   
488.500000	0.127318   
489.000000	-0.192227  
489.500000	-0.272863  
490.000000	-0.046325  
490.500000	0.060848   
491.000000	-0.004863  
491.500000	-0.089560  
492.000000	0.073863   
492.500000	0.309477   
493.000000	0.364007   
493.500000	0.270212   
494.000000	0.230712   
494.500000	0.358954   
495.000000	0.564901   
495.500000	0.769666   
496.000000	0.752325   
496.500000	0.621037   
497.000000	0.434999   
497.500000	0.385393   
498.000000	0.443583   
498.500000	0.615787   
499.000000	0.751704   
499.500000	0.834871   
500.000000	0.889310   
500.500000	1.019053   
501.000000	1.171318   
501.500000	1.162446   
502.000000	0.971568   
502.500000	0.821651   
503.000000	0.864250   
503.500000	1.133962   
504.000000	1.335143   
504.500000	1.352727   
505.000000	1.305818   
505.500000	1.390818   
506.000000	1.467765   
506.500000	1.464507   
507.000000	1.541666   
507.500000	1.783553   
508.000000	2.179734   
508.500000	2.503272   
509.000000	2.623840   
509.500000	2.361818   
510.000000	2.092287   
510.500000	1.998969   
511.000000	2.228090   
511.500000	2.431242   
512.000000	2.693840   
512.500000	2.750969   
513.000000	2.756886   
513.500000	2.671439   
514.000000	2.864333   
514.500000	3.108136   
515.000000	3.245621   
515.500000	3.211787   
516.000000	3.121598   
516.500000	3.191772   
517.000000	3.387530   
517.500000	3.625431   
518.000000	3.620750   
518.500000	3.511060   
519.000000	3.463719   
519.500000	3.572022   
520.000000	3.694121   
520.500000	3.661704   
521.000000	3.635977   
521.500000	3.563492   
522.000000	3.534636   
522.500000	3.526189   
523.000000	3.687015   
523.500000	3.995757   
524.000000	4.170174   
524.500000	4.240174   
525.000000	4.202946   
525.500000	4.295083   
526.000000	4.310181   
526.500000	4.317530   
527.000000	4.135234   
527.500000	4.215037   
528.000000	4.369280   
528.500000	4.709295   
529.000000	4.824803   
529.500000	4.980765   
530.000000	4.978348   
530.500000	5.359363   
531.000000	5.781204   
531.500000	6.422795   
532.000000	6.662477   
532.500000	6.777553   
533.000000	6.743871   
533.500000	6.928060   
534.000000	7.117340   
534.500000	7.503977   
535.000000	7.838590   
535.500000	8.190833   
536.000000	8.677098   
536.500000	9.472454   
537.000000	10.176704  
537.500000	10.481787  
538.000000	10.590477  
538.500000	11.027545  
539.000000	11.835083  
539.500000	12.587954  
540.000000	12.969045  
540.500000	13.383333  
541.000000	14.126704  
541.500000	14.847901  
542.000000	14.995219  
542.500000	14.491053  
543.000000	13.762568  
543.500000	13.247704  
544.000000	12.858545  
544.500000	12.603878  
545.000000	12.206946  
545.500000	11.731234  
546.000000	11.107515  
546.500000	10.913136  
547.000000	10.414613  
547.500000	9.703022   
548.000000	8.620583   
548.500000	8.080477   
549.000000	7.674212   
549.500000	7.201568   
550.000000	6.533636   
550.500000	5.902045   
551.000000	5.394522   
551.500000	5.010916   
552.000000	4.815863   
552.500000	4.436303   
553.000000	3.978356   
553.500000	3.763560   
554.000000	3.987204   
554.500000	3.976257   
555.000000	3.572121   
555.500000	3.208469   
556.000000	3.158818   
556.500000	3.145113   
557.000000	3.283234   
557.500000	3.452310   
558.000000	3.646825   
558.500000	3.470454   
559.000000	3.255340   
559.500000	3.193500   
560.000000	3.243583   
560.500000	3.278416   
561.000000	3.374166   
561.500000	3.553113   
562.000000	3.534643   
562.500000	3.442719   
563.000000	3.345477   
563.500000	3.486409   
564.000000	3.579295   
564.500000	3.619659   
565.000000	3.459886   
565.500000	3.265393   
566.000000	3.158681   
566.500000	3.240250   
567.000000	3.355060   
567.500000	3.409136   
568.000000	3.345007   
568.500000	3.193484   
569.000000	2.995424   
569.500000	2.907954   
570.000000	2.971242   
570.500000	3.150500   
571.000000	3.243765   
571.500000	3.422234   
572.000000	3.508674   
572.500000	3.418757   
573.000000	3.285462   
573.500000	3.313840   
574.000000	3.470219   
574.500000	3.442780   
575.000000	3.344075   
575.500000	3.244196   
576.000000	3.307045   
576.500000	3.245378   
577.000000	3.286060   
577.500000	3.347371   
578.000000	3.493189   
578.500000	3.526666   
579.000000	3.486696   
579.500000	3.444916   
580.000000	3.525492   
580.500000	3.640628   
581.000000	3.559393   
581.500000	3.410015   
582.000000	3.301916   
582.500000	3.466113   
583.000000	3.550939   
583.500000	3.590234   
584.000000	3.463977   
584.500000	3.404333   
585.000000	3.393015   
585.500000	3.567159   
586.000000	3.638750   
586.500000	3.769000   
587.000000	3.764227   
587.500000	3.710621   
588.000000	3.592371   
588.500000	3.605962   
589.000000	3.622931   
589.500000	3.688363   
590.000000	3.831560   
590.500000	4.341181   
591.000000	4.722272   
591.500000	4.730363   
592.000000	4.350568   
592.500000	4.253553   
593.000000	4.252818   
593.500000	4.458522   
594.000000	4.329848   
594.500000	4.517007   
595.000000	4.743356   
595.500000	5.034636   
596.000000	4.855560   
596.500000	4.585962   
597.000000	4.281704   
597.500000	4.152318   
598.000000	4.062090   
598.500000	4.246924   
599.000000	4.583424   
599.500000	4.812204   
600.000000	4.796553   
600.500000	4.918704   
601.000000	5.297742   
601.500000	5.821409   
602.000000	5.995689   
602.500000	5.988734   
603.000000	5.778946   
603.500000	5.575113   
604.000000	5.515992   
604.500000	5.822015   
605.000000	6.481742   
605.500000	7.040295   
606.000000	7.287765   
606.500000	7.102196   
607.000000	6.971492   
607.500000	6.972530   
608.000000	7.405522   
608.500000	7.653499   
609.000000	7.729113   
609.500000	7.661742   
610.000000	8.106272   
610.500000	8.834098   
611.000000	9.423249   
611.500000	9.393022   
612.000000	9.174871   
612.500000	9.399424   
613.000000	9.979280   
613.500000	10.644681  
614.000000	11.144303  
614.500000	11.459636  
615.000000	11.491409  
615.500000	11.487037  
616.000000	11.658651  
616.500000	12.086121  
617.000000	12.641280  
617.500000	13.270810  
618.000000	14.051469  
618.500000	14.919568  
619.000000	15.558196  
619.500000	15.797810  
620.000000	15.718439  
620.500000	15.724969  
621.000000	16.252128  
621.500000	16.951840  
622.000000	17.509954  
622.500000	17.840090  
623.000000	18.504848  
623.500000	19.539242  
624.000000	20.658007  
624.500000	21.389924  
625.000000	21.969416  
625.500000	22.804772  
626.000000	23.533848  
626.500000	24.571734  
627.000000	25.852621  
627.500000	27.225696  
628.000000	27.719348  
628.500000	28.073977  
629.000000	28.767712  
629.500000	30.429356  
630.000000	31.974621  
630.500000	33.486053  
631.000000	34.822340  
631.500000	36.251295  
632.000000	37.358265  
632.500000	38.099128  
633.000000	38.860030  
633.500000	39.722901  
634.000000	41.116280  
634.500000	42.703636  
635.000000	44.440719  
635.500000	45.803113  
636.000000	47.184825  
636.500000	49.437348  
637.000000	51.936712  
637.500000	53.976863  
638.000000	55.538166  
638.500000	57.046446  
639.000000	58.924507  
639.500000	60.995568  
640.000000	63.752613  
640.500000	65.728446  
641.000000	67.054431  
641.500000	67.980878  
642.000000	70.637545  
642.500000	74.278015  
643.000000	78.010818  
643.500000	81.269363  
644.000000	83.903568  
644.500000	86.126143  
645.000000	88.251166  
645.500000	90.422303  
646.000000	92.602825  
646.500000	94.671166  
647.000000	97.213250  
647.500000	100.533712 
648.000000	103.637780 
648.500000	106.612568 
649.000000	108.885621 
649.500000	111.135916 
650.000000	113.049712 
650.500000	116.296121 
651.000000	120.473462 
651.500000	125.016181 
652.000000	127.981871 
652.500000	129.307522 
653.000000	130.764848 
653.500000	134.089053 
654.000000	139.763659 
654.500000	145.198469 
655.000000	148.222878 
655.500000	149.276075 
656.000000	151.016659 
656.500000	154.812227 
657.000000	158.818325 
657.500000	162.418189 
658.000000	165.655000 
658.500000	168.765090 
659.000000	172.018848 
659.500000	176.059575 
660.000000	180.919856 
660.500000	184.862068 
661.000000	186.727954 
661.500000	187.282212 
662.000000	190.151416 
662.500000	194.356151 
663.000000	199.529295 
663.500000	203.708265 
664.000000	206.793757 
664.500000	209.581674 
665.000000	214.020659 
665.500000	219.307401 
666.000000	223.097545 
666.500000	224.240386 
667.000000	225.192000 
667.500000	228.609530 
668.000000	232.575818 
668.500000	233.644674 
669.000000	233.578840 
669.500000	234.517045 
670.000000	238.116704 
670.500000	241.264371 
671.000000	243.650015 
671.500000	245.246901 
672.000000	246.857825 
672.500000	247.766325 
673.000000	249.476515 
673.500000	252.807128 
674.000000	256.306750 
674.500000	258.486234 
675.000000	260.315530 
675.500000	261.783045 
676.000000	263.080696 
676.500000	263.128227 
677.000000	264.886636 
677.500000	266.269560 
678.000000	267.628833 
678.500000	266.226128 
679.000000	265.337318 
679.500000	264.980037 
680.000000	266.312613 
680.500000	266.857666 
681.000000	266.297818 
681.500000	265.324068 
682.000000	265.660234 
682.500000	266.274893 
683.000000	264.779060 
683.500000	263.435219 
684.000000	262.418666 
684.500000	262.524613 
685.000000	260.778295 
685.500000	258.391257 
686.000000	255.536954 
686.500000	254.181431 
687.000000	252.675772 
687.500000	251.187219 
688.000000	248.349484 
688.500000	245.214992 
689.000000	241.516575 
689.500000	237.552484 
690.000000	233.469000 
690.500000	230.945007 
691.000000	228.598901 
691.500000	226.002818 
692.000000	222.637265 
692.500000	220.175272 
693.000000	218.267348 
693.500000	214.920090 
694.000000	210.661378 
694.500000	205.944795 
695.000000	201.747575 
695.500000	197.146416 
696.000000	192.570871 
696.500000	188.298522 
697.000000	184.104189 
697.500000	179.408454 
698.000000	174.871704 
698.500000	170.453666 
699.000000	165.735431 
699.500000	160.544121 
700.000000	156.104318 
700.500000	152.580803 
701.000000	150.305136 
701.500000	146.832606 
702.000000	141.984431 
702.500000	136.509742 
703.000000	132.472666 
703.500000	129.687106 
704.000000	127.044674 
704.500000	123.927401 
705.000000	120.301121 
705.500000	116.098613 
706.000000	112.087000 
706.500000	109.221598 
707.000000	106.412196 
707.500000	103.751643 
708.000000	101.291484 
708.500000	99.258727  
709.000000	96.726204  
709.500000	93.447553  
710.000000	91.090750  
710.500000	88.917840  
711.000000	86.785484  
711.500000	83.188136  
712.000000	80.478863  
712.500000	77.458856  
713.000000	75.827962  
713.500000	73.456189  
714.000000	71.781303  
714.500000	69.459674  
715.000000	67.419787  
715.500000	64.943606  
716.000000	62.920075  
716.500000	61.637234  
717.000000	60.485606  
717.500000	58.943166  
718.000000	56.153431  
718.500000	53.414886  
719.000000	50.825181  
719.500000	49.541128  
720.000000	48.626560  
720.500000	48.398159  
721.000000	47.572901  
721.500000	46.393416  
722.000000	44.130878  
722.500000	42.353250  
723.000000	40.819810  
723.500000	40.358575  
724.000000	39.412053  
724.500000	38.465704  
725.000000	36.729606  
725.500000	35.276924  
726.000000	33.569401  
726.500000	32.820598  
727.000000	32.573696  
727.500000	32.419939  
728.000000	31.320893  
728.500000	29.724174  
729.000000	28.303939  
729.500000	27.660143  
730.000000	27.134787  
730.500000	26.782007  
731.000000	26.342780  
731.500000	25.613787  
732.000000	24.235939  
732.500000	23.358386  
733.000000	22.858151  
733.500000	22.802750  
734.000000	21.745712  
734.500000	20.401242  
735.000000	19.368090  
735.500000	19.100121  
736.000000	19.284977  
736.500000	19.668818  
737.000000	19.775681  
737.500000	19.062196  
738.000000	18.021924  
738.500000	17.243871  
739.000000	16.893727  
739.500000	16.269416  
740.000000	15.337310  
740.500000	14.723325  
741.000000	14.553689  
741.500000	14.395265  
742.000000	13.882772  
742.500000	13.639265  
743.000000	13.661545  
743.500000	13.924015  
744.000000	13.596053  
744.500000	13.023651  
745.000000	12.209106  
745.500000	11.873037  
746.000000	11.671075  
746.500000	11.613818  
747.000000	11.172515  
747.500000	10.467295  
748.000000	10.008416  
748.500000	10.053886  
749.000000	10.372257  
749.500000	10.476484  
750.000000	10.318272  
750.500000	9.984022   
751.000000	9.710409   
751.500000	9.565863   
752.000000	9.418068   
752.500000	8.976757   
753.000000	8.457060   
753.500000	8.201795   
754.000000	8.382598   
754.500000	8.692727   
755.000000	8.702696   
755.500000	8.297977   
756.000000	7.864568   
756.500000	7.640234   
757.000000	7.568090   
757.500000	7.359863   
758.000000	7.024287   
758.500000	6.828871   
759.000000	6.631636   
759.500000	6.425962   
760.000000	6.307159   
760.500000	6.253037   
761.000000	5.962484   
761.500000	5.616325   
762.000000	5.436000   
762.500000	5.774356   
763.000000	6.209712   
763.500000	6.392431   
764.000000	6.204674   
764.500000	5.756454   
765.000000	5.279916   
765.500000	5.005878   
766.000000	5.128969   
766.500000	5.411068   
767.000000	5.600045   
767.500000	5.594000   
768.000000	5.443159   
768.500000	5.208386   
769.000000	4.883787   
769.500000	4.744340   
770.000000	4.690098   
770.500000	4.789189   
771.000000	4.827863   
771.500000	4.906659   
772.000000	4.676310   
772.500000	4.350090   
773.000000	4.257265   
773.500000	4.439136   
774.000000	4.531015   
774.500000	4.468340   
775.000000	4.418522   
775.500000	4.386840   
776.000000	4.192045   
776.500000	3.861106   
777.000000	3.688825   
777.500000	3.683992   
778.000000	3.683431   
778.500000	3.746166   
779.000000	3.732295   
779.500000	3.687772   
780.000000	3.647454   
780.500000	3.667734   
781.000000	3.667212   
781.500000	3.592113   
782.000000	3.496833   
782.500000	3.348219   
783.000000	3.266909   
783.500000	3.119257   
784.000000	3.082424   
784.500000	3.049022   
785.000000	3.141356   
785.500000	3.197431   
786.000000	3.238272   
786.500000	3.135712   
787.000000	3.094643   
787.500000	2.952159   
788.000000	2.946053   
788.500000	3.000303   
789.000000	3.167295   
789.500000	3.155651   
790.000000	3.165568   
790.500000	3.140795   
791.000000	3.188780   
791.500000	3.153999   
792.000000	3.002272   
792.500000	2.904606   
793.000000	2.851098   
793.500000	2.884848   
794.000000	2.743446   
794.500000	2.471924   
795.000000	2.316628   
795.500000	2.481166   
796.000000	2.678424   
796.500000	2.740863   
797.000000	2.765196   
797.500000	2.839484   
798.000000	2.813893   
798.500000	2.658712   
799.000000	2.491871   
799.500000	2.660696   
800.000000	2.653363   
800.500000	2.521068   
801.000000	2.267196   
801.500000	2.369325   
802.000000	2.524674   
802.500000	2.342121   
803.000000	1.905227   
803.500000	1.654318   
804.000000	1.842053   
804.500000	1.895363   
805.000000	1.930712   
805.500000	1.955000   
806.000000	2.095121   
806.500000	2.041083   
807.000000	1.913083   
807.500000	1.968416   
808.000000	2.172348   
808.500000	2.094901   
809.000000	1.838772   
809.500000	1.658136   
810.000000	1.669075   
810.500000	1.559386   
811.000000	1.456606   
811.500000	1.441719   
812.000000	1.623537   
812.500000	1.699250   
813.000000	1.709204   
813.500000	1.760909   
814.000000	1.725522   
814.500000	1.481250   
815.000000	1.245500   
815.500000	1.358719   
816.000000	1.643333   
816.500000	1.710037   
817.000000	1.516446   
817.500000	1.453325   
818.000000	1.524189   
818.500000	1.822825   
819.000000	1.938000   
819.500000	2.004325   
820.000000	1.766462   
820.500000	1.805621   
821.000000	1.824946   
821.500000	1.957583   
822.000000	1.840575   
822.500000	2.065265   
823.000000	2.327568   
823.500000	2.479742   
824.000000	2.346136   
824.500000	2.242803   
825.000000	2.181643   
825.500000	2.141159   
826.000000	1.982318   
826.500000	2.007636   
827.000000	2.016409   
827.500000	2.051053   
828.000000	1.957522   
828.500000	1.881530   
829.000000	1.637378   
829.500000	1.435507   
830.000000	1.253318   
830.500000	1.248371   
831.000000	1.197795   
831.500000	1.062689   
832.000000	0.979068   
832.500000	1.065803   
833.000000	1.132007   
833.500000	1.166734   
834.000000	1.121674   
834.500000	1.174765   
835.000000	1.283007   
835.500000	1.349507   
836.000000	1.318939   
836.500000	1.176295   
837.000000	0.991765   
837.500000	0.868977   
838.000000	0.839734   
838.500000	0.870371   
839.000000	0.861257   
839.500000	0.839742   
840.000000	0.900318   
840.500000	0.985075   
841.000000	0.989280   
841.500000	0.934310   
842.000000	0.918128   
842.500000	0.735818   
843.000000	0.539242   
843.500000	0.401674   
844.000000	0.623712   
844.500000	0.823121   
845.000000	0.775371   
845.500000	0.477242   
846.000000	0.323000   
846.500000	0.330742   
847.000000	0.314674   
847.500000	0.182128   
848.000000	0.140242   
848.500000	0.293719   
849.000000	0.463962   
849.500000	0.421378   
850.000000	0.256075   
850.500000	0.174439   
851.000000	0.190712   
851.500000	0.207356   
852.000000	0.165113   
852.500000	0.220212   
853.000000	0.321530   
853.500000	0.396000   
854.000000	0.362515   
854.500000	0.352704   
855.000000	0.368825   
855.500000	0.305909   
856.000000	0.233878   
856.500000	0.172530   
857.000000	0.140219   
857.500000	0.096818   
858.000000	0.054871   
858.500000	-0.009772  
859.000000	-0.084969  
859.500000	-0.129598  
860.000000	-0.062568  
860.500000	0.067742   
861.000000	0.088287   
861.500000	0.018030   
862.000000	-0.044886  
862.500000	0.062977   
863.000000	0.195416   
863.500000	0.233946   
864.000000	0.077189   
864.500000	0.077249   
865.000000	0.193553   
865.500000	0.335257   
866.000000	0.227007   
866.500000	0.106196   
867.000000	0.069227   
867.500000	0.103984   
868.000000	0.002560   
868.500000	-0.090318  
869.000000	-0.069340  
869.500000	0.083416   
870.000000	0.164651   
870.500000	0.055401   
871.000000	-0.138825  
871.500000	-0.195666  
872.000000	-0.093924  
872.500000	0.033643   
873.000000	0.011409   
873.500000	-0.065151  
874.000000	-0.111507  
874.500000	-0.029045  
875.000000	0.030659   
875.500000	0.080098   
876.000000	0.046022   
876.500000	0.003787   
877.000000	-0.097553  
877.500000	-0.202916  
878.000000	-0.195454  
878.500000	-0.059424  
879.000000	0.038606   
879.500000	-0.002977  
880.000000	-0.077431  
880.500000	-0.140325  
881.000000	-0.168969  
881.500000	-0.152280  
882.000000	-0.105674  
882.500000	-0.066333  
883.000000	-0.065333  
883.500000	-0.062522  
884.000000	-0.020969  
884.500000	-0.080939  
885.000000	-0.091643  
885.500000	-0.029121  
886.000000	0.116871   
886.500000	0.039871   
887.000000	-0.103598  
887.500000	-0.215909  
888.000000	-0.074227  
888.500000	-0.022931  
889.000000	-0.064742  
889.500000	-0.164446  
890.000000	-0.095318  
890.500000	-0.047848  
891.000000	-0.009393  
891.500000	-0.036515  
892.000000	0.029477   
892.500000	-0.012954  
893.000000	-0.078454  
893.500000	-0.135848  
894.000000	-0.052954  
894.500000	0.008257   
895.000000	0.015219   
895.500000	-0.021333  
896.000000	0.009545   
896.500000	0.061787   
897.000000	0.067780   
897.500000	0.069939   
898.000000	0.061015   
898.500000	0.155007   
899.000000	0.191439   
899.500000	0.038704   
900.000000	-0.508363  
900.500000	-1.369000  

