PE FL                   SPECTRUM    ASCII       PEDS        1.60        
  -1
S12#06.SP
24/04/15
15:03:24.00
24/04/15
15:04:50.00
Jan

900.500000
1









LS55
405.00
5.00
5.00
SCAN
1
20
100
100
0
400
0
1
0
1
5
ON
900 405 
1 0 0
#HDR
-1
-1
#GR
NM

0.00002384185791015625
0.0
450.000000
0.500000
902
8
332.935151
-0.302999
#DATA
450.000000	-0.302999  
450.500000	0.141416   
451.000000	0.231992   
451.500000	0.039712   
452.000000	-0.051333  
452.500000	0.015219   
453.000000	0.003053   
453.500000	-0.206015  
454.000000	-0.223977  
454.500000	0.071893   
455.000000	0.397636   
455.500000	0.430598   
456.000000	0.320227   
456.500000	0.233537   
457.000000	0.135143   
457.500000	-0.037234  
458.000000	-0.163015  
458.500000	0.007416   
459.000000	0.319977   
459.500000	0.580136   
460.000000	0.428181   
460.500000	0.213424   
461.000000	0.017409   
461.500000	-0.024840  
462.000000	-0.082946  
462.500000	-0.112575  
463.000000	-0.086530  
463.500000	0.002249   
464.000000	0.181909   
464.500000	0.272719   
465.000000	0.286613   
465.500000	0.087598   
466.000000	-0.063954  
466.500000	-0.188484  
467.000000	-0.134795  
467.500000	-0.023977  
468.000000	0.104871   
468.500000	0.071015   
469.000000	-0.005674  
469.500000	-0.128212  
470.000000	-0.147060  
470.500000	-0.056674  
471.000000	0.153757   
471.500000	0.349272   
472.000000	0.342022   
472.500000	0.182287   
473.000000	-0.008212  
473.500000	-0.080666  
474.000000	-0.170371  
474.500000	-0.224212  
475.000000	-0.258803  
475.500000	-0.115856  
476.000000	-0.047977  
476.500000	-0.095734  
477.000000	-0.149856  
477.500000	-0.053090  
478.000000	0.033340   
478.500000	0.068196   
479.000000	0.002878   
479.500000	0.008507   
480.000000	0.035507   
480.500000	0.065333   
481.000000	0.120810   
481.500000	0.188378   
482.000000	0.178424   
482.500000	0.222492   
483.000000	0.261212   
483.500000	0.314151   
484.000000	0.262378   
484.500000	0.085530   
485.000000	-0.078946  
485.500000	-0.094462  
486.000000	-0.039416  
486.500000	0.130098   
487.000000	0.253030   
487.500000	0.387454   
488.000000	0.454734   
488.500000	0.400295   
489.000000	0.260204   
489.500000	0.283712   
490.000000	0.382378   
490.500000	0.356469   
491.000000	0.135772   
491.500000	-0.081363  
492.000000	-0.071696  
492.500000	0.108295   
493.000000	0.253295   
493.500000	0.326712   
494.000000	0.338045   
494.500000	0.425787   
495.000000	0.470272   
495.500000	0.475159   
496.000000	0.407295   
496.500000	0.556810   
497.000000	0.743878   
497.500000	0.850325   
498.000000	0.737295   
498.500000	0.623477   
499.000000	0.531856   
499.500000	0.590318   
500.000000	0.736257   
500.500000	0.911749   
501.000000	0.941742   
501.500000	0.894666   
502.000000	0.885999   
502.500000	0.985636   
503.000000	1.107719   
503.500000	1.272818   
504.000000	1.370454   
504.500000	1.365424   
505.000000	1.295757   
505.500000	1.463575   
506.000000	1.818439   
506.500000	2.074954   
507.000000	1.997083   
507.500000	1.812060   
508.000000	1.836196   
508.500000	2.166962   
509.000000	2.342219   
509.500000	2.354939   
510.000000	2.297901   
510.500000	2.561022   
511.000000	2.806340   
511.500000	2.961439   
512.000000	2.947333   
512.500000	2.963886   
513.000000	2.912651   
513.500000	2.791045   
514.000000	2.841219   
514.500000	2.962121   
515.000000	3.140984   
515.500000	3.259810   
516.000000	3.449227   
516.500000	3.467265   
517.000000	3.339462   
517.500000	3.211310   
518.000000	3.303356   
518.500000	3.359659   
519.000000	3.383734   
519.500000	3.432280   
520.000000	3.652257   
520.500000	3.751946   
521.000000	3.565583   
521.500000	3.171143   
522.000000	3.072765   
522.500000	3.418181   
523.000000	3.812863   
523.500000	4.039022   
524.000000	4.109999   
524.500000	4.378303   
525.000000	4.725651   
525.500000	4.831939   
526.000000	4.766712   
526.500000	4.576174   
527.000000	4.574780   
527.500000	4.674053   
528.000000	4.779204   
528.500000	4.853659   
529.000000	5.064446   
529.500000	5.519340   
530.000000	6.003174   
530.500000	6.104234   
531.000000	5.773492   
531.500000	5.717250   
532.000000	6.227780   
532.500000	6.904090   
533.000000	7.307909   
533.500000	7.472068   
534.000000	7.937727   
534.500000	8.182181   
535.000000	8.220757   
535.500000	8.298492   
536.000000	8.763363   
536.500000	9.230628   
537.000000	9.701696   
537.500000	9.964621   
538.000000	10.222537  
538.500000	10.542568  
539.000000	11.481401  
539.500000	12.685462  
540.000000	13.598962  
540.500000	13.702287  
541.000000	13.871878  
541.500000	14.188969  
542.000000	14.796666  
542.500000	15.071659  
543.000000	14.731583  
543.500000	13.801795  
544.000000	12.779287  
544.500000	12.404696  
545.000000	12.203696  
545.500000	11.949189  
546.000000	11.402340  
546.500000	10.986424  
547.000000	10.460386  
547.500000	9.695696   
548.000000	8.734166   
548.500000	7.664348   
549.000000	6.865590   
549.500000	6.430219   
550.000000	6.552613   
550.500000	6.614234   
551.000000	6.229977   
551.500000	5.534863   
552.000000	4.813992   
552.500000	4.496803   
553.000000	4.284969   
553.500000	4.130969   
554.000000	3.916500   
554.500000	3.806962   
555.000000	3.582219   
555.500000	3.384121   
556.000000	3.321772   
556.500000	3.514878   
557.000000	3.778295   
557.500000	3.870780   
558.000000	3.900083   
558.500000	3.963651   
559.000000	3.864666   
559.500000	3.639151   
560.000000	3.376219   
560.500000	3.339280   
561.000000	3.391272   
561.500000	3.426174   
562.000000	3.233310   
562.500000	3.282196   
563.000000	3.563606   
563.500000	3.859143   
564.000000	3.587053   
564.500000	3.226166   
565.000000	3.202318   
565.500000	3.601681   
566.000000	3.789454   
566.500000	3.818946   
567.000000	3.839098   
567.500000	3.897681   
568.000000	3.745007   
568.500000	3.713212   
569.000000	3.744840   
569.500000	3.760416   
570.000000	3.558446   
570.500000	3.613848   
571.000000	3.688000   
571.500000	3.716143   
572.000000	3.325636   
572.500000	3.077446   
573.000000	2.979795   
573.500000	3.187772   
574.000000	3.246924   
574.500000	3.268863   
575.000000	3.269901   
575.500000	3.487939   
576.000000	3.793060   
576.500000	3.932386   
577.000000	3.830295   
577.500000	3.695734   
578.000000	3.751424   
578.500000	3.911500   
579.000000	3.887106   
579.500000	3.755750   
580.000000	3.520962   
580.500000	3.579007   
581.000000	3.637181   
581.500000	3.692090   
582.000000	3.606333   
582.500000	3.700151   
583.000000	3.695992   
583.500000	3.746416   
584.000000	3.788825   
584.500000	3.901113   
585.000000	3.878689   
585.500000	3.809189   
586.000000	3.835295   
586.500000	3.869143   
587.000000	3.771181   
587.500000	3.698280   
588.000000	3.997924   
588.500000	4.208356   
589.000000	4.239295   
589.500000	4.136689   
590.000000	4.370424   
590.500000	4.417931   
591.000000	4.415924   
591.500000	4.209727   
592.000000	4.183606   
592.500000	4.311439   
593.000000	4.643219   
593.500000	4.825825   
594.000000	4.747462   
594.500000	4.587098   
595.000000	4.740439   
595.500000	5.173734   
596.000000	5.345000   
596.500000	5.278098   
597.000000	5.224848   
597.500000	5.324621   
598.000000	5.572416   
598.500000	5.557196   
599.000000	5.358007   
599.500000	5.101204   
600.000000	5.254393   
600.500000	5.558295   
601.000000	5.819204   
601.500000	5.685469   
602.000000	5.833840   
602.500000	6.064931   
603.000000	6.552499   
603.500000	6.834515   
604.000000	7.050477   
604.500000	7.075484   
605.000000	7.208568   
605.500000	7.307712   
606.000000	7.438454   
606.500000	7.589053   
607.000000	7.788696   
607.500000	8.204212   
608.000000	8.314303   
608.500000	8.258757   
609.000000	8.105424   
609.500000	8.149537   
610.000000	8.479204   
610.500000	9.076128   
611.000000	9.594901   
611.500000	9.839371   
612.000000	10.011757  
612.500000	10.342128  
613.000000	10.638075  
613.500000	10.811696  
614.000000	11.174000  
614.500000	11.917825  
615.000000	12.460015  
615.500000	12.674257  
616.000000	12.800962  
616.500000	12.968272  
617.000000	13.328280  
617.500000	13.748204  
618.000000	14.445454  
618.500000	14.841803  
619.000000	15.060462  
619.500000	15.541348  
620.000000	16.680340  
620.500000	17.799621  
621.000000	18.574136  
621.500000	18.945386  
622.000000	19.507060  
622.500000	20.125151  
623.000000	20.872363  
623.500000	21.205318  
624.000000	21.862840  
624.500000	22.763992  
625.000000	24.182295  
625.500000	25.169189  
626.000000	25.951446  
626.500000	26.659575  
627.000000	27.871909  
627.500000	29.350575  
628.000000	30.474545  
628.500000	31.120295  
629.000000	31.705196  
629.500000	33.081992  
630.000000	34.718053  
630.500000	36.301090  
631.000000	37.441121  
631.500000	38.748265  
632.000000	39.965765  
632.500000	41.017083  
633.000000	42.364340  
633.500000	44.339075  
634.000000	47.097568  
634.500000	48.899810  
635.000000	50.205409  
635.500000	50.921378  
636.000000	52.964537  
636.500000	55.186265  
637.000000	57.642613  
637.500000	59.288901  
638.000000	60.787272  
638.500000	62.046060  
639.000000	64.601310  
639.500000	68.065749  
640.000000	71.809492  
640.500000	73.921409  
641.000000	75.440984  
641.500000	77.304053  
642.000000	80.826386  
642.500000	84.387643  
643.000000	87.817234  
643.500000	90.124719  
644.000000	91.547886  
644.500000	93.348522  
645.000000	96.302000  
645.500000	100.191000 
646.000000	102.902234 
646.500000	105.237590 
647.000000	107.948560 
647.500000	112.232121 
648.000000	115.775416 
648.500000	118.808386 
649.000000	121.786909 
649.500000	125.835265 
650.000000	130.049484 
650.500000	133.059303 
651.000000	135.031143 
651.500000	137.526553 
652.000000	141.749719 
652.500000	146.192492 
653.000000	150.238636 
653.500000	153.505537 
654.000000	156.718386 
654.500000	160.652159 
655.000000	164.495227 
655.500000	168.738462 
656.000000	173.091727 
656.500000	177.901098 
657.000000	182.184439 
657.500000	186.163568 
658.000000	190.374954 
658.500000	195.711628 
659.000000	201.271083 
659.500000	205.921295 
660.000000	209.619954 
660.500000	212.927583 
661.000000	215.983106 
661.500000	219.608674 
662.000000	224.102962 
662.500000	229.972863 
663.000000	234.737356 
663.500000	237.979416 
664.000000	239.486098 
664.500000	242.224106 
665.000000	246.654924 
665.500000	252.101636 
666.000000	255.695439 
666.500000	257.512833 
667.000000	259.513916 
667.500000	263.872689 
668.000000	269.927530 
668.500000	273.610166 
669.000000	276.327106 
669.500000	278.613401 
670.000000	282.651053 
670.500000	286.762068 
671.000000	291.014825 
671.500000	293.516606 
672.000000	295.537250 
672.500000	297.450234 
673.000000	299.738515 
673.500000	301.525628 
674.000000	303.445287 
674.500000	304.808871 
675.000000	307.017227 
675.500000	308.726750 
676.000000	311.530500 
676.500000	314.835515 
677.000000	318.251939 
677.500000	321.180856 
678.000000	324.068545 
678.500000	327.331242 
679.000000	327.959696 
679.500000	326.388916 
680.000000	322.987712 
680.500000	323.397454 
681.000000	327.005712 
681.500000	331.283204 
682.000000	332.935151 
682.500000	332.643757 
683.000000	331.407931 
683.500000	330.540136 
684.000000	329.328537 
684.500000	329.033666 
685.000000	328.816212 
685.500000	328.458416 
686.000000	326.799863 
686.500000	324.562439 
687.000000	322.070272 
687.500000	319.909568 
688.000000	318.008257 
688.500000	315.761174 
689.000000	313.563613 
689.500000	310.906446 
690.000000	308.935772 
690.500000	306.527992 
691.000000	304.856007 
691.500000	301.958333 
692.000000	298.493598 
692.500000	293.459643 
693.000000	289.446492 
693.500000	284.552772 
694.000000	279.357015 
694.500000	273.665575 
695.000000	268.954439 
695.500000	263.565681 
696.000000	256.899022 
696.500000	250.339878 
697.000000	244.494530 
697.500000	239.318840 
698.000000	233.423643 
698.500000	228.875272 
699.000000	225.078431 
699.500000	220.909583 
700.000000	214.761015 
700.500000	210.388651 
701.000000	207.317962 
701.500000	205.589022 
702.000000	199.978431 
702.500000	193.367765 
703.000000	185.819227 
703.500000	180.319310 
704.000000	174.716651 
704.500000	171.805272 
705.000000	168.392878 
705.500000	164.427401 
706.000000	158.823386 
706.500000	154.092371 
707.000000	149.874613 
707.500000	145.928469 
708.000000	140.863113 
708.500000	137.085446 
709.000000	133.339015 
709.500000	129.433825 
710.000000	125.014295 
710.500000	121.921924 
711.000000	119.423409 
711.500000	116.478037 
712.000000	112.410530 
712.500000	108.237553 
713.000000	104.979000 
713.500000	102.173000 
714.000000	99.515507  
714.500000	96.071431  
715.000000	92.380401  
715.500000	89.607113  
716.000000	87.428484  
716.500000	85.217962  
717.000000	81.954886  
717.500000	79.370977  
718.000000	77.071992  
718.500000	75.831045  
719.000000	73.765515  
719.500000	71.915219  
720.000000	68.783098  
720.500000	65.785871  
721.000000	62.912750  
721.500000	61.178780  
722.000000	60.262340  
722.500000	59.191507  
723.000000	57.622045  
723.500000	55.229583  
724.000000	53.639053  
724.500000	51.945704  
725.000000	50.530931  
725.500000	48.871431  
726.000000	47.693886  
726.500000	46.703643  
727.000000	46.013606  
727.500000	45.395015  
728.000000	44.261742  
728.500000	42.391515  
729.000000	40.049568  
729.500000	38.351068  
730.000000	37.049393  
730.500000	35.744878  
731.000000	34.480515  
731.500000	33.834363  
732.000000	33.535439  
732.500000	32.400825  
733.000000	30.179303  
733.500000	28.166750  
734.000000	27.777401  
734.500000	28.478856  
735.000000	28.622386  
735.500000	27.991515  
736.000000	26.568803  
736.500000	25.639363  
737.000000	24.891007  
737.500000	24.337984  
738.000000	23.161386  
738.500000	22.326159  
739.000000	21.903962  
739.500000	21.637098  
740.000000	20.930818  
740.500000	20.295583  
741.000000	20.083416  
741.500000	19.868242  
742.000000	19.161606  
742.500000	18.256295  
743.000000	17.738083  
743.500000	17.730628  
744.000000	17.502401  
744.500000	17.043113  
745.000000	16.263053  
745.500000	15.581000  
746.000000	15.153954  
746.500000	15.417348  
747.000000	15.790818  
747.500000	15.733992  
748.000000	14.969242  
748.500000	14.141143  
749.000000	13.670757  
749.500000	13.342613  
750.000000	12.904356  
750.500000	12.217893  
751.000000	11.488454  
751.500000	10.956083  
752.000000	10.891878  
752.500000	11.210227  
753.000000	11.459280  
753.500000	11.273590  
754.000000	10.691992  
754.500000	10.204871  
755.000000	9.956424   
755.500000	9.782704   
756.000000	9.715590   
756.500000	9.742265   
757.000000	9.736401   
757.500000	9.349878   
758.000000	8.910651   
758.500000	8.535371   
759.000000	8.505878   
759.500000	8.574977   
760.000000	8.613757   
760.500000	8.242287   
761.000000	7.868666   
761.500000	7.702037   
762.000000	7.868234   
762.500000	7.780621   
763.000000	7.645939   
763.500000	7.359553   
764.000000	7.081939   
764.500000	6.713295   
765.000000	6.725136   
765.500000	6.846659   
766.000000	6.820515   
766.500000	6.548780   
767.000000	6.509621   
767.500000	6.383272   
768.000000	6.041204   
768.500000	5.420787   
769.000000	5.210454   
769.500000	5.389151   
770.000000	5.771416   
770.500000	5.698946   
771.000000	5.483227   
771.500000	5.244878   
772.000000	5.283621   
772.500000	5.241030   
773.000000	5.090000   
773.500000	4.878401   
774.000000	4.905840   
774.500000	4.841818   
775.000000	4.746924   
775.500000	4.595060   
776.000000	4.645484   
776.500000	4.740212   
777.000000	4.771848   
777.500000	4.455015   
778.000000	4.124962   
778.500000	3.993272   
779.000000	4.162272   
779.500000	4.224090   
780.000000	4.043500   
780.500000	3.675022   
781.000000	3.685545   
781.500000	3.982696   
782.000000	4.223545   
782.500000	4.151143   
783.000000	3.975659   
783.500000	3.883462   
784.000000	3.761325   
784.500000	3.450083   
785.000000	3.215681   
785.500000	3.362757   
786.000000	3.506560   
786.500000	3.532886   
787.000000	3.381575   
787.500000	3.302363   
788.000000	3.242787   
788.500000	3.214772   
789.000000	3.142689   
789.500000	3.271371   
790.000000	3.396477   
790.500000	3.295598   
791.000000	2.915303   
791.500000	2.568212   
792.000000	2.605833   
792.500000	2.898227   
793.000000	3.092825   
793.500000	3.141848   
794.000000	3.127977   
794.500000	3.125310   
795.000000	3.062878   
795.500000	3.013734   
796.000000	2.905174   
796.500000	2.914272   
797.000000	2.899204   
797.500000	2.937507   
798.000000	2.821545   
798.500000	2.665893   
799.000000	2.504401   
799.500000	2.442939   
800.000000	2.395765   
800.500000	2.468992   
801.000000	2.604704   
801.500000	2.694840   
802.000000	2.587871   
802.500000	2.444469   
803.000000	2.414128   
803.500000	2.540015   
804.000000	2.493265   
804.500000	2.387515   
805.000000	2.296878   
805.500000	2.332575   
806.000000	2.408204   
806.500000	2.456424   
807.000000	2.344053   
807.500000	2.098424   
808.000000	2.021348   
808.500000	2.142136   
809.000000	2.286643   
809.500000	2.236757   
810.000000	2.139015   
810.500000	2.154636   
811.000000	2.171075   
811.500000	2.131962   
812.000000	2.127659   
812.500000	2.198666   
813.000000	2.039810   
813.500000	1.735696   
814.000000	1.644681   
814.500000	1.723484   
815.000000	1.857992   
815.500000	1.819045   
816.000000	1.861136   
816.500000	1.986992   
817.000000	2.045500   
817.500000	1.950303   
818.000000	1.915515   
818.500000	1.996492   
819.000000	2.025484   
819.500000	2.116083   
820.000000	2.254681   
820.500000	2.367734   
821.000000	2.408037   
821.500000	2.319090   
822.000000	2.388643   
822.500000	2.463765   
823.000000	2.624113   
823.500000	2.647674   
824.000000	2.585719   
824.500000	2.481787   
825.000000	2.471848   
825.500000	2.641446   
826.000000	2.685416   
826.500000	2.625916   
827.000000	2.467825   
827.500000	2.336287   
828.000000	2.103651   
828.500000	1.982886   
829.000000	1.917462   
829.500000	1.888969   
830.000000	1.727553   
830.500000	1.570803   
831.000000	1.422174   
831.500000	1.320280   
832.000000	1.151886   
832.500000	1.151742   
833.000000	1.254340   
833.500000	1.365174   
834.000000	1.346962   
834.500000	1.230575   
835.000000	1.069045   
835.500000	0.976636   
836.000000	0.937537   
836.500000	0.995348   
837.000000	1.048166   
837.500000	1.073606   
838.000000	0.988287   
838.500000	0.941037   
839.000000	0.920325   
839.500000	1.011757   
840.000000	1.072765   
840.500000	1.019446   
841.000000	0.806590   
841.500000	0.558621   
842.000000	0.435257   
842.500000	0.507727   
843.000000	0.621416   
843.500000	0.671674   
844.000000	0.644272   
844.500000	0.559393   
845.000000	0.478348   
845.500000	0.459681   
846.000000	0.536545   
846.500000	0.637772   
847.000000	0.654378   
847.500000	0.474931   
848.000000	0.266946   
848.500000	0.147075   
849.000000	0.192265   
849.500000	0.272575   
850.000000	0.322848   
850.500000	0.236075   
851.000000	0.125803   
851.500000	0.053462   
852.000000	0.164037   
852.500000	0.267356   
853.000000	0.269856   
853.500000	0.201431   
854.000000	0.251401   
854.500000	0.347924   
855.000000	0.360848   
855.500000	0.297659   
856.000000	0.286878   
856.500000	0.294106   
857.000000	0.232583   
857.500000	0.094204   
858.000000	0.018159   
858.500000	-0.044265  
859.000000	-0.069984  
859.500000	-0.121340  
860.000000	-0.103037  
860.500000	-0.065371  
861.000000	-0.064719  
861.500000	-0.112287  
862.000000	-0.195053  
862.500000	-0.162280  
863.000000	-0.035401  
863.500000	0.105060   
864.000000	0.064113   
864.500000	0.046015   
865.000000	0.067931   
865.500000	0.126151   
866.000000	0.033303   
866.500000	-0.096727  
867.000000	-0.085621  
867.500000	0.047484   
868.000000	0.184909   
868.500000	0.244037   
869.000000	0.244075   
869.500000	0.163143   
870.000000	0.074416   
870.500000	0.021840   
871.000000	0.025249   
871.500000	0.035386   
872.000000	-0.001174  
872.500000	0.051530   
873.000000	0.059560   
873.500000	-0.000431  
874.000000	-0.143037  
874.500000	-0.200166  
875.000000	-0.144439  
875.500000	0.003280   
876.000000	0.141348   
876.500000	0.254234   
877.000000	0.248287   
877.500000	0.055401   
878.000000	-0.169340  
878.500000	-0.293409  
879.000000	-0.289416  
879.500000	-0.238689  
880.000000	-0.193068  
880.500000	-0.124075  
881.000000	0.047143   
881.500000	0.241295   
882.000000	0.309280   
882.500000	0.177500   
883.000000	-0.002500  
883.500000	-0.054257  
884.000000	0.042515   
884.500000	0.097318   
885.000000	0.052871   
885.500000	-0.034113  
886.000000	-0.103227  
886.500000	-0.109060  
887.000000	-0.056598  
887.500000	0.019022   
888.000000	0.052992   
888.500000	0.074446   
889.000000	0.072174   
889.500000	0.061969   
890.000000	-0.021371  
890.500000	-0.087106  
891.000000	-0.126750  
891.500000	-0.125954  
892.000000	-0.157363  
892.500000	-0.126537  
893.000000	-0.096560  
893.500000	-0.051015  
894.000000	-0.041060  
894.500000	0.014098   
895.000000	0.013113   
895.500000	0.022053   
896.000000	0.047242   
896.500000	0.088310   
897.000000	0.078378   
897.500000	0.043060   
898.000000	0.059045   
898.500000	0.073060   
899.000000	0.063621   
899.500000	0.009681   
900.000000	0.005833   
900.500000	0.032000   

