PE FL                   SPECTRUM    ASCII       PEDS        1.60        
  -1
S12#03.SP
24/04/15
14:59:08.00
24/04/15
15:00:33.00
Jan

900.500000
1









LS55
405.00
5.00
5.00
SCAN
1
20
100
100
0
400
0
1
0
1
5
ON
900 405 
1 0 0
#HDR
-1
-1
#GR
NM

0.00002384185791015625
0.0
450.000000
0.500000
902
8
347.867674
-0.504083
#DATA
450.000000	0.035000   
450.500000	0.071598   
451.000000	0.071446   
451.500000	0.019272   
452.000000	0.018371   
452.500000	0.130984   
453.000000	0.260318   
453.500000	0.265719   
454.000000	0.084810   
454.500000	-0.055749  
455.000000	-0.141439  
455.500000	-0.204363  
456.000000	-0.295303  
456.500000	-0.233954  
457.000000	-0.152348  
457.500000	-0.120689  
458.000000	-0.229227  
458.500000	-0.266803  
459.000000	-0.239659  
459.500000	-0.176992  
460.000000	-0.217924  
460.500000	-0.206583  
461.000000	-0.107007  
461.500000	0.021045   
462.000000	0.132030   
462.500000	0.162128   
463.000000	0.203401   
463.500000	0.172545   
464.000000	0.127568   
464.500000	-0.007295  
465.000000	-0.107189  
465.500000	-0.059568  
466.000000	0.123204   
466.500000	0.333454   
467.000000	0.370825   
467.500000	0.359037   
468.000000	0.239212   
468.500000	0.068219   
469.000000	-0.111431  
469.500000	-0.213378  
470.000000	-0.266121  
470.500000	-0.247477  
471.000000	-0.115537  
471.500000	0.022712   
472.000000	0.155613   
472.500000	0.139598   
473.000000	-0.025636  
473.500000	-0.386780  
474.000000	-0.504083  
474.500000	-0.365106  
475.000000	0.034537   
475.500000	0.124962   
476.000000	0.143515   
476.500000	0.073401   
477.000000	0.278659   
477.500000	0.335174   
478.000000	0.249340   
478.500000	-0.005757  
479.000000	-0.035098  
479.500000	0.050143   
480.000000	0.124871   
480.500000	0.239446   
481.000000	0.233568   
481.500000	0.216454   
482.000000	0.016022   
482.500000	0.024840   
483.000000	0.003833   
483.500000	0.120227   
484.000000	0.061583   
484.500000	0.080537   
485.000000	0.009174   
485.500000	0.034636   
486.000000	0.025068   
486.500000	0.027606   
487.000000	-0.005484  
487.500000	-0.009371  
488.000000	0.015734   
488.500000	0.084734   
489.000000	0.169121   
489.500000	0.135848   
490.000000	-0.063151  
490.500000	-0.182848  
491.000000	-0.111977  
491.500000	0.061318   
492.000000	0.069977   
492.500000	0.056742   
493.000000	0.018893   
493.500000	0.032924   
494.000000	0.043098   
494.500000	0.031833   
495.000000	0.045984   
495.500000	0.122469   
496.000000	0.415174   
496.500000	0.692045   
497.000000	0.845204   
497.500000	0.781401   
498.000000	0.803348   
498.500000	0.893363   
499.000000	0.964060   
499.500000	0.955636   
500.000000	0.938068   
500.500000	1.010295   
501.000000	1.066931   
501.500000	1.031522   
502.000000	0.932939   
502.500000	0.943719   
503.000000	1.094053   
503.500000	1.191075   
504.000000	1.113946   
504.500000	1.002560   
505.000000	1.089477   
505.500000	1.419954   
506.000000	1.711969   
506.500000	1.961962   
507.000000	2.153068   
507.500000	2.379628   
508.000000	2.422401   
508.500000	2.472000   
509.000000	2.573621   
509.500000	2.767727   
510.000000	2.678856   
510.500000	2.559590   
511.000000	2.534090   
511.500000	2.678189   
512.000000	2.827454   
512.500000	3.083871   
513.000000	3.319659   
513.500000	3.424515   
514.000000	3.338515   
514.500000	3.247242   
515.000000	3.293265   
515.500000	3.249560   
516.000000	3.231015   
516.500000	3.154984   
517.000000	3.182628   
517.500000	3.285015   
518.000000	3.648825   
518.500000	4.046500   
519.000000	4.277030   
519.500000	4.153371   
520.000000	4.140007   
520.500000	3.987287   
521.000000	3.823530   
521.500000	3.508371   
522.000000	3.640545   
522.500000	3.596128   
523.000000	3.475227   
523.500000	3.201484   
524.000000	3.588530   
524.500000	4.076242   
525.000000	4.436333   
525.500000	4.488174   
526.000000	4.594257   
526.500000	4.700848   
527.000000	4.858424   
527.500000	4.937098   
528.000000	5.144606   
528.500000	5.467242   
529.000000	5.934477   
529.500000	6.234977   
530.000000	6.202575   
530.500000	5.901522   
531.000000	5.585901   
531.500000	5.687462   
532.000000	5.944537   
532.500000	6.332772   
533.000000	6.620393   
533.500000	7.090371   
534.000000	7.389553   
534.500000	7.836409   
535.000000	8.270780   
535.500000	8.796477   
536.000000	8.886477   
536.500000	9.048409   
537.000000	9.637416   
537.500000	10.746136  
538.000000	11.529803  
538.500000	12.012575  
539.000000	12.496090  
539.500000	13.271704  
540.000000	13.991893  
540.500000	14.023416  
541.000000	13.705492  
541.500000	13.320757  
542.000000	13.615939  
542.500000	13.803916  
543.000000	14.190984  
543.500000	14.146689  
544.000000	14.037916  
544.500000	13.148007  
545.000000	12.273174  
545.500000	11.578878  
546.000000	11.399204  
546.500000	11.004090  
547.000000	10.344204  
547.500000	9.673234   
548.000000	9.184015   
548.500000	8.590583   
549.000000	7.897833   
549.500000	7.003946   
550.000000	6.580909   
550.500000	6.337939   
551.000000	6.204477   
551.500000	5.675621   
552.000000	5.324295   
552.500000	5.116545   
553.000000	5.080992   
553.500000	4.707166   
554.000000	4.290840   
554.500000	4.062568   
555.000000	3.927954   
555.500000	3.684871   
556.000000	3.493962   
556.500000	3.477280   
557.000000	3.519916   
557.500000	3.477977   
558.000000	3.427227   
558.500000	3.545212   
559.000000	3.692962   
559.500000	3.710189   
560.000000	3.517810   
560.500000	3.431924   
561.000000	3.420545   
561.500000	3.491696   
562.000000	3.483931   
562.500000	3.418159   
563.000000	3.346734   
563.500000	3.340659   
564.000000	3.341318   
564.500000	3.236340   
565.000000	3.117356   
565.500000	3.152962   
566.000000	3.456575   
566.500000	3.658893   
567.000000	3.709681   
567.500000	3.672363   
568.000000	3.625780   
568.500000	3.450499   
569.000000	3.267045   
569.500000	3.346636   
570.000000	3.552106   
570.500000	3.683333   
571.000000	3.623651   
571.500000	3.643742   
572.000000	3.626136   
572.500000	3.748000   
573.000000	3.855734   
573.500000	3.981749   
574.000000	3.801401   
574.500000	3.593068   
575.000000	3.458454   
575.500000	3.523598   
576.000000	3.583674   
576.500000	3.628553   
577.000000	3.564734   
577.500000	3.475446   
578.000000	3.360674   
578.500000	3.331765   
579.000000	3.372909   
579.500000	3.547333   
580.000000	3.653727   
580.500000	3.604560   
581.000000	3.415409   
581.500000	3.360128   
582.000000	3.472318   
582.500000	3.592310   
583.000000	3.603704   
583.500000	3.507863   
584.000000	3.521318   
584.500000	3.874848   
585.000000	4.336878   
585.500000	4.514719   
586.000000	4.414636   
586.500000	4.416219   
587.000000	4.614249   
587.500000	4.703818   
588.000000	4.472121   
588.500000	4.142121   
589.000000	4.112303   
589.500000	4.262106   
590.000000	4.230954   
590.500000	3.943371   
591.000000	3.630992   
591.500000	3.724090   
592.000000	3.982015   
592.500000	4.396575   
593.000000	4.626939   
593.500000	4.843249   
594.000000	4.838303   
594.500000	4.831924   
595.000000	5.004666   
595.500000	5.251106   
596.000000	5.292780   
596.500000	5.036265   
597.000000	4.985287   
597.500000	5.263469   
598.000000	5.625363   
598.500000	5.597227   
599.000000	5.477931   
599.500000	5.550060   
600.000000	5.837848   
600.500000	6.087946   
601.000000	6.051924   
601.500000	5.828477   
602.000000	5.823939   
602.500000	6.311227   
603.000000	6.970962   
603.500000	7.250181   
604.000000	7.290431   
604.500000	7.369234   
605.000000	7.652734   
605.500000	7.744560   
606.000000	7.787969   
606.500000	7.683439   
607.000000	7.720674   
607.500000	7.564969   
608.000000	7.609348   
608.500000	7.983174   
609.000000	8.771477   
609.500000	9.482992   
610.000000	9.583568   
610.500000	9.386075   
611.000000	9.395280   
611.500000	9.975666   
612.000000	10.582007  
612.500000	10.749712  
613.000000	10.473136  
613.500000	10.248962  
614.000000	10.612174  
614.500000	11.388492  
615.000000	12.485477  
615.500000	13.191833  
616.000000	13.904053  
616.500000	14.160886  
617.000000	14.444113  
617.500000	14.669174  
618.000000	15.408833  
618.500000	16.019363  
619.000000	16.672030  
619.500000	17.073734  
620.000000	17.727212  
620.500000	18.026348  
621.000000	18.142840  
621.500000	18.440795  
622.000000	19.496681  
622.500000	20.442325  
623.000000	21.176181  
623.500000	21.792015  
624.000000	23.044500  
624.500000	23.735946  
625.000000	23.964416  
625.500000	24.003098  
626.000000	25.013196  
626.500000	26.320651  
627.000000	27.556075  
627.500000	28.300893  
628.000000	29.470803  
628.500000	30.743340  
629.000000	32.285969  
629.500000	33.620803  
630.000000	34.987992  
630.500000	36.280825  
631.000000	38.038878  
631.500000	39.822787  
632.000000	41.754189  
632.500000	42.850507  
633.000000	43.537090  
633.500000	44.368189  
634.000000	45.987598  
634.500000	48.044151  
635.000000	50.423666  
635.500000	52.629272  
636.000000	54.553977  
636.500000	56.416257  
637.000000	58.731136  
637.500000	60.986401  
638.000000	62.465068  
638.500000	64.034719  
639.000000	66.592500  
639.500000	69.752469  
640.000000	72.106295  
640.500000	74.410265  
641.000000	76.738719  
641.500000	79.598499  
642.000000	81.727484  
642.500000	83.908946  
643.000000	86.173719  
643.500000	89.186515  
644.000000	92.373136  
644.500000	95.855590  
645.000000	99.229159  
645.500000	101.969446 
646.000000	104.501113 
646.500000	106.493045 
647.000000	109.527356 
647.500000	113.141030 
648.000000	117.349962 
648.500000	120.499909 
649.000000	123.715060 
649.500000	127.022060 
650.000000	131.284159 
650.500000	134.750780 
651.000000	138.557924 
651.500000	142.916833 
652.000000	147.936204 
652.500000	152.183772 
653.000000	155.160469 
653.500000	157.981931 
654.000000	161.720560 
654.500000	166.465757 
655.000000	171.137280 
655.500000	175.542909 
656.000000	178.881159 
656.500000	183.150734 
657.000000	187.715037 
657.500000	193.201530 
658.000000	196.903545 
658.500000	200.258848 
659.000000	202.602674 
659.500000	207.231143 
660.000000	213.122204 
660.500000	220.532780 
661.000000	225.696977 
661.500000	229.086545 
662.000000	232.226969 
662.500000	236.678090 
663.000000	241.203295 
663.500000	245.555787 
664.000000	250.049409 
664.500000	254.206113 
665.000000	256.515666 
665.500000	259.180909 
666.000000	263.568909 
666.500000	268.208886 
667.000000	271.633560 
667.500000	274.656765 
668.000000	278.663386 
668.500000	281.883196 
669.000000	283.912840 
669.500000	285.740257 
670.000000	288.473007 
670.500000	292.455969 
671.000000	296.254249 
671.500000	300.992015 
672.000000	304.270803 
672.500000	306.984007 
673.000000	309.053227 
673.500000	313.436772 
674.000000	318.755522 
674.500000	322.444500 
675.000000	323.999356 
675.500000	324.855962 
676.000000	327.557121 
676.500000	329.483803 
677.000000	330.486121 
677.500000	331.093931 
678.000000	333.952886 
678.500000	337.406469 
679.000000	339.540484 
679.500000	339.530962 
680.000000	339.314053 
680.500000	339.507000 
681.000000	339.490757 
681.500000	338.539780 
682.000000	338.501893 
682.500000	339.680696 
683.000000	342.717136 
683.500000	346.057984 
684.000000	347.623212 
684.500000	347.867674 
685.000000	347.104439 
685.500000	346.732477 
686.000000	344.927727 
686.500000	343.699227 
687.000000	341.818106 
687.500000	341.339469 
688.000000	339.277500 
688.500000	336.833803 
689.000000	333.598295 
689.500000	331.418939 
690.000000	329.672340 
690.500000	326.691386 
691.000000	320.887212 
691.500000	314.022613 
692.000000	309.985659 
692.500000	308.173681 
693.000000	306.574053 
693.500000	302.107689 
694.000000	296.738856 
694.500000	291.418143 
695.000000	286.631818 
695.500000	280.193871 
696.000000	273.363348 
696.500000	268.016098 
697.000000	263.901060 
697.500000	259.956386 
698.000000	255.445484 
698.500000	250.845250 
699.000000	244.535431 
699.500000	237.121280 
700.000000	230.622787 
700.500000	225.615113 
701.000000	220.753340 
701.500000	214.481583 
702.000000	208.945401 
702.500000	203.362136 
703.000000	198.855037 
703.500000	193.583522 
704.000000	188.866560 
704.500000	183.576810 
705.000000	179.117454 
705.500000	174.583590 
706.000000	169.811424 
706.500000	165.150712 
707.000000	160.720325 
707.500000	156.679121 
708.000000	151.366992 
708.500000	145.938053 
709.000000	141.070159 
709.500000	137.270265 
710.000000	133.015393 
710.500000	128.689757 
711.000000	124.980954 
711.500000	122.852030 
712.000000	121.640068 
712.500000	120.031318 
713.000000	117.191931 
713.500000	112.920128 
714.000000	107.799977 
714.500000	102.879856 
715.000000	99.545492  
715.500000	97.527719  
716.000000	95.643371  
716.500000	92.246037  
717.000000	88.435499  
717.500000	85.380333  
718.000000	83.553439  
718.500000	81.702893  
719.000000	79.388037  
719.500000	77.158787  
720.000000	75.233371  
720.500000	72.662954  
721.000000	69.082378  
721.500000	65.911954  
722.000000	64.143113  
722.500000	63.283833  
723.000000	61.904378  
723.500000	59.892939  
724.000000	57.937189  
724.500000	55.887500  
725.000000	53.761325  
725.500000	51.613742  
726.000000	50.192734  
726.500000	48.270037  
727.000000	46.603848  
727.500000	45.520681  
728.000000	45.718136  
728.500000	45.164098  
729.000000	43.336856  
729.500000	40.960401  
730.000000	39.649219  
730.500000	38.624401  
731.000000	37.498795  
731.500000	36.342424  
732.000000	35.634992  
732.500000	35.002727  
733.000000	34.059469  
733.500000	32.898848  
734.000000	31.650477  
734.500000	30.461295  
735.000000	29.460174  
735.500000	28.983484  
736.000000	28.497181  
736.500000	27.809803  
737.000000	26.473121  
737.500000	25.111537  
738.000000	24.000886  
738.500000	23.410053  
739.000000	22.771765  
739.500000	22.320939  
740.000000	21.819053  
740.500000	21.682037  
741.000000	21.310848  
741.500000	20.658636  
742.000000	19.715265  
742.500000	18.680287  
743.000000	18.155636  
743.500000	18.130000  
744.000000	18.241840  
744.500000	17.928568  
745.000000	17.820363  
745.500000	17.536916  
746.000000	16.721840  
746.500000	15.620696  
747.000000	15.104128  
747.500000	15.400234  
748.000000	15.154507  
748.500000	14.496492  
749.000000	13.884666  
749.500000	13.833469  
750.000000	13.299901  
750.500000	12.794106  
751.000000	12.306712  
751.500000	12.425553  
752.000000	12.436825  
752.500000	12.143356  
753.000000	11.525613  
753.500000	11.167833  
754.000000	11.219166  
754.500000	11.408757  
755.000000	11.025242  
755.500000	10.232787  
756.000000	9.778045   
756.500000	9.627840   
757.000000	9.488371   
757.500000	9.113469   
758.000000	8.797045   
758.500000	8.533068   
759.000000	8.536522   
759.500000	8.535295   
760.000000	8.633583   
760.500000	8.168121   
761.000000	7.642833   
761.500000	7.380280   
762.000000	7.570386   
762.500000	7.774068   
763.000000	7.943689   
763.500000	8.074462   
764.000000	7.956613   
764.500000	7.602734   
765.000000	7.223060   
765.500000	7.168242   
766.000000	7.217098   
766.500000	7.256249   
767.000000	7.053159   
767.500000	6.600340   
768.000000	6.219787   
768.500000	6.138916   
769.000000	6.344992   
769.500000	6.277060   
770.000000	6.053454   
770.500000	5.648272   
771.000000	5.426628   
771.500000	5.232810   
772.000000	5.333333   
772.500000	5.289151   
773.000000	5.163590   
773.500000	4.960628   
774.000000	4.868696   
774.500000	4.790833   
775.000000	4.656250   
775.500000	4.614212   
776.000000	4.525227   
776.500000	4.756454   
777.000000	4.889136   
777.500000	4.901621   
778.000000	4.472606   
778.500000	4.119962   
779.000000	3.976045   
779.500000	4.045303   
780.000000	4.074530   
780.500000	4.175174   
781.000000	4.291287   
781.500000	4.221659   
782.000000	4.041780   
782.500000	3.811553   
783.000000	3.768969   
783.500000	3.878106   
784.000000	3.953977   
784.500000	3.750431   
785.000000	3.444924   
785.500000	3.260166   
786.000000	3.482590   
786.500000	3.741166   
787.000000	3.812893   
787.500000	3.602803   
788.000000	3.389416   
788.500000	3.176015   
789.000000	3.080878   
789.500000	3.121681   
790.000000	3.292977   
790.500000	3.429075   
791.000000	3.414045   
791.500000	3.322878   
792.000000	3.191348   
792.500000	3.123151   
793.000000	3.106424   
793.500000	3.129416   
794.000000	3.118712   
794.500000	3.007333   
795.000000	2.967378   
795.500000	2.986454   
796.000000	3.051303   
796.500000	3.008674   
797.000000	2.931022   
797.500000	2.835878   
798.000000	2.800378   
798.500000	2.767742   
799.000000	2.825181   
799.500000	2.897772   
800.000000	2.831681   
800.500000	2.592704   
801.000000	2.504878   
801.500000	2.595030   
802.000000	2.699719   
802.500000	2.643856   
803.000000	2.457128   
803.500000	2.321166   
804.000000	2.288378   
804.500000	2.453946   
805.000000	2.682545   
805.500000	2.895757   
806.000000	2.795143   
806.500000	2.692446   
807.000000	2.605166   
807.500000	2.646280   
808.000000	2.501143   
808.500000	2.292863   
809.000000	1.976909   
809.500000	1.873712   
810.000000	1.909090   
810.500000	2.044886   
811.000000	2.023795   
811.500000	1.844507   
812.000000	1.715840   
812.500000	1.897515   
813.000000	2.176196   
813.500000	2.360833   
814.000000	2.319878   
814.500000	2.089560   
815.000000	1.719719   
815.500000	1.519401   
816.000000	1.630106   
816.500000	2.075318   
817.000000	2.291878   
817.500000	2.082121   
818.000000	1.768696   
818.500000	1.740340   
819.000000	1.996272   
819.500000	2.201174   
820.000000	2.199712   
820.500000	2.008886   
821.000000	1.966780   
821.500000	2.051083   
822.000000	2.398287   
822.500000	2.741560   
823.000000	2.996068   
823.500000	3.002265   
824.000000	2.928818   
824.500000	2.847901   
825.000000	2.859696   
825.500000	2.812242   
826.000000	2.687628   
826.500000	2.652545   
827.000000	2.642295   
827.500000	2.455871   
828.000000	2.011810   
828.500000	1.615393   
829.000000	1.489386   
829.500000	1.481992   
830.000000	1.410257   
830.500000	1.272265   
831.000000	1.279628   
831.500000	1.245878   
832.000000	1.261287   
832.500000	1.180803   
833.000000	1.157878   
833.500000	1.062340   
834.000000	0.977189   
834.500000	0.915666   
835.000000	0.948553   
835.500000	1.032500   
836.000000	1.146810   
836.500000	1.142333   
837.000000	1.015825   
837.500000	0.906772   
838.000000	0.949545   
838.500000	0.974196   
839.000000	0.972265   
839.500000	0.862651   
840.000000	0.861787   
840.500000	0.817295   
841.000000	0.787696   
841.500000	0.698674   
842.000000	0.783181   
842.500000	0.855280   
843.000000	0.834333   
843.500000	0.634757   
844.000000	0.461227   
844.500000	0.426462   
845.000000	0.527962   
845.500000	0.513545   
846.000000	0.420530   
846.500000	0.271401   
847.000000	0.184454   
847.500000	0.063825   
848.000000	0.106356   
848.500000	0.305613   
849.000000	0.592901   
849.500000	0.544530   
850.000000	0.298795   
850.500000	0.125924   
851.000000	0.227136   
851.500000	0.349378   
852.000000	0.369272   
852.500000	0.278666   
853.000000	0.257818   
853.500000	0.271310   
854.000000	0.285075   
854.500000	0.228704   
855.000000	0.116863   
855.500000	0.026348   
856.000000	0.007007   
856.500000	0.027295   
857.000000	0.063856   
857.500000	0.106712   
858.000000	0.222462   
858.500000	0.294204   
859.000000	0.292295   
859.500000	0.172204   
860.000000	0.118734   
860.500000	0.039568   
861.000000	-0.008212  
861.500000	-0.065287  
862.000000	-0.049962  
862.500000	0.024765   
863.000000	0.152780   
863.500000	0.276295   
864.000000	0.291287   
864.500000	0.112000   
865.000000	-0.084492  
865.500000	-0.138696  
866.000000	-0.080803  
866.500000	-0.086090  
867.000000	-0.104924  
867.500000	-0.097590  
868.000000	0.013098   
868.500000	0.078560   
869.000000	0.105068   
869.500000	0.040856   
870.000000	0.036462   
870.500000	0.057363   
871.000000	0.133924   
871.500000	0.083030   
872.000000	0.026666   
872.500000	-0.025704  
873.000000	0.003810   
873.500000	-0.016704  
874.000000	-0.015075  
874.500000	0.016643   
875.000000	0.060121   
875.500000	0.093984   
876.000000	0.063189   
876.500000	-0.017674  
877.000000	-0.066227  
877.500000	-0.044712  
878.000000	-0.013742  
878.500000	-0.015333  
879.000000	-0.065121  
879.500000	-0.088606  
880.000000	-0.100598  
880.500000	-0.100840  
881.000000	-0.082045  
881.500000	-0.042121  
882.000000	-0.026371  
882.500000	-0.041727  
883.000000	-0.072757  
883.500000	-0.092143  
884.000000	-0.031977  
884.500000	-0.022871  
885.000000	-0.053515  
885.500000	-0.132090  
886.000000	-0.119166  
886.500000	-0.137659  
887.000000	-0.108401  
887.500000	-0.036401  
888.000000	0.129833   
888.500000	0.185545   
889.000000	0.166772   
889.500000	0.113212   
890.000000	0.110643   
890.500000	0.062075   
891.000000	0.041712   
891.500000	0.051931   
892.000000	0.083795   
892.500000	0.051340   
893.000000	0.012916   
893.500000	-0.005060  
894.000000	-0.019075  
894.500000	0.056969   
895.000000	0.106939   
895.500000	0.106257   
896.000000	-0.021575  
896.500000	-0.068393  
897.000000	-0.017712  
897.500000	0.058659   
898.000000	-0.024007  
898.500000	-0.139136  
899.000000	-0.163969  
899.500000	-0.124090  
900.000000	-0.127696  
900.500000	-0.265000  

