PE FL                   SPECTRUM    ASCII       PEDS        1.60        
  -1
S12#20.SP
24/04/15
15:23:22.00
24/04/15
15:24:48.00
Jan

900.500000
1









LS55
405.00
5.00
5.00
SCAN
1
20
100
100
0
400
0
1
0
1
5
ON
900 405 
1 0 0
#HDR
-1
-1
#GR
NM

0.00002384185791015625
0.0
450.000000
0.500000
902
8
260.665083
-0.300825
#DATA
450.000000	-0.034000  
450.500000	0.025689   
451.000000	-0.060234  
451.500000	-0.169416  
452.000000	-0.160181  
452.500000	0.081992   
453.000000	0.188000   
453.500000	0.112871   
454.000000	-0.121462  
454.500000	-0.258363  
455.000000	-0.272727  
455.500000	-0.129151  
456.000000	0.085772   
456.500000	0.238045   
457.000000	0.178303   
457.500000	-0.021287  
458.000000	-0.222515  
458.500000	-0.242477  
459.000000	-0.160568  
459.500000	-0.080962  
460.000000	-0.132393  
460.500000	-0.193378  
461.000000	-0.100015  
461.500000	0.028734   
462.000000	0.180780   
462.500000	0.147318   
463.000000	0.156446   
463.500000	-0.014128  
464.000000	-0.103651  
464.500000	-0.252386  
465.000000	-0.113795  
465.500000	0.014856   
466.000000	0.126787   
466.500000	-0.023765  
467.000000	-0.154318  
467.500000	-0.111681  
468.000000	0.172204   
468.500000	0.296765   
469.000000	0.227083   
469.500000	0.126416   
470.000000	0.146068   
470.500000	0.149916   
471.000000	0.045484   
471.500000	-0.093643  
472.000000	-0.105681  
472.500000	-0.145159  
473.000000	-0.180636  
473.500000	-0.161363  
474.000000	-0.011954  
474.500000	0.047931   
475.000000	0.062545   
475.500000	-0.141636  
476.000000	-0.278340  
476.500000	-0.300401  
477.000000	-0.172871  
477.500000	-0.035651  
478.000000	0.040098   
478.500000	0.116189   
479.000000	0.168568   
479.500000	0.160424   
480.000000	0.023265   
480.500000	-0.043606  
481.000000	-0.047492  
481.500000	-0.026189  
482.000000	-0.028454  
482.500000	0.023446   
483.000000	0.148560   
483.500000	0.198924   
484.000000	0.104833   
484.500000	0.001553   
485.000000	0.017780   
485.500000	0.066515   
486.000000	0.018666   
486.500000	0.000590   
487.000000	0.106295   
487.500000	0.286060   
488.000000	0.343083   
488.500000	0.234727   
489.000000	0.134712   
489.500000	0.149969   
490.000000	0.202265   
490.500000	0.214840   
491.000000	0.209742   
491.500000	0.220469   
492.000000	0.290265   
492.500000	0.404401   
493.000000	0.426121   
493.500000	0.314325   
494.000000	0.126681   
494.500000	0.074537   
495.000000	0.190696   
495.500000	0.309696   
496.000000	0.413060   
496.500000	0.449810   
497.000000	0.510446   
497.500000	0.471439   
498.000000	0.482598   
498.500000	0.401060   
499.000000	0.456007   
499.500000	0.577363   
500.000000	0.851454   
500.500000	1.062500   
501.000000	1.114310   
501.500000	0.969356   
502.000000	0.858560   
502.500000	0.797303   
503.000000	0.830545   
503.500000	0.887901   
504.000000	1.043068   
504.500000	1.221568   
505.000000	1.285348   
505.500000	1.233772   
506.000000	1.332477   
506.500000	1.684765   
507.000000	1.878924   
507.500000	1.837106   
508.000000	1.668689   
508.500000	1.906007   
509.000000	2.289462   
509.500000	2.556325   
510.000000	2.566530   
510.500000	2.625295   
511.000000	2.765787   
511.500000	2.984166   
512.000000	3.137401   
512.500000	3.032590   
513.000000	2.814030   
513.500000	2.661219   
514.000000	2.833219   
514.500000	2.933045   
515.000000	2.926030   
515.500000	2.924621   
516.000000	3.096621   
516.500000	3.277507   
517.000000	3.257856   
517.500000	3.155121   
518.000000	3.081075   
518.500000	3.138333   
519.000000	3.277280   
519.500000	3.504212   
520.000000	3.698075   
520.500000	3.609318   
521.000000	3.402840   
521.500000	3.207939   
522.000000	3.357613   
522.500000	3.669878   
523.000000	3.833803   
523.500000	3.733136   
524.000000	3.588462   
524.500000	3.706151   
525.000000	3.914886   
525.500000	4.103545   
526.000000	4.324840   
526.500000	4.498598   
527.000000	4.678083   
527.500000	4.744795   
528.000000	5.003257   
528.500000	5.148106   
529.000000	5.084636   
529.500000	4.913416   
530.000000	5.169765   
530.500000	5.613825   
531.000000	5.816166   
531.500000	5.678750   
532.000000	5.873696   
532.500000	6.487530   
533.000000	7.298143   
533.500000	7.659083   
534.000000	7.798954   
534.500000	7.894893   
535.000000	8.162128   
535.500000	8.523022   
536.000000	8.995060   
536.500000	9.583818   
537.000000	9.975204   
537.500000	10.292424  
538.000000	10.591462  
538.500000	11.173787  
539.000000	11.986893  
539.500000	12.748651  
540.000000	13.191136  
540.500000	13.484537  
541.000000	13.632454  
541.500000	13.726931  
542.000000	13.913606  
542.500000	14.194590  
543.000000	14.482053  
543.500000	14.455454  
544.000000	14.120363  
544.500000	13.547416  
545.000000	12.785166  
545.500000	11.754886  
546.000000	10.845818  
546.500000	10.049143  
547.000000	9.431606   
547.500000	8.890272   
548.000000	8.398636   
548.500000	7.880393   
549.000000	7.342393   
549.500000	6.872159   
550.000000	6.618515   
550.500000	6.363560   
551.000000	5.866325   
551.500000	5.122901   
552.000000	4.347787   
552.500000	3.795212   
553.000000	3.487250   
553.500000	3.434310   
554.000000	3.467704   
554.500000	3.457727   
555.000000	3.489106   
555.500000	3.593166   
556.000000	3.668151   
556.500000	3.438303   
557.000000	3.171871   
557.500000	3.108530   
558.000000	3.254439   
558.500000	3.304840   
559.000000	3.306393   
559.500000	3.468606   
560.000000	3.598280   
560.500000	3.719416   
561.000000	3.705795   
561.500000	3.788613   
562.000000	3.629121   
562.500000	3.314522   
563.000000	2.969000   
563.500000	3.116939   
564.000000	3.504159   
564.500000	3.718765   
565.000000	3.518727   
565.500000	3.258416   
566.000000	3.215886   
566.500000	3.323500   
567.000000	3.354181   
567.500000	3.274189   
568.000000	3.308772   
568.500000	3.415795   
569.000000	3.513378   
569.500000	3.464984   
570.000000	3.394340   
570.500000	3.370416   
571.000000	3.408121   
571.500000	3.447871   
572.000000	3.359227   
572.500000	3.210977   
573.000000	3.163871   
573.500000	3.269128   
574.000000	3.438696   
574.500000	3.361712   
575.000000	3.160871   
575.500000	2.950840   
576.000000	3.173386   
576.500000	3.415598   
577.000000	3.528537   
577.500000	3.278659   
578.000000	3.158560   
578.500000	3.228909   
579.000000	3.361257   
579.500000	3.317363   
580.000000	3.275295   
580.500000	3.205484   
581.000000	3.153636   
581.500000	3.119431   
582.000000	3.240484   
582.500000	3.329727   
583.000000	3.407060   
583.500000	3.400363   
584.000000	3.589492   
584.500000	3.711643   
585.000000	3.695719   
585.500000	3.425409   
586.000000	3.434492   
586.500000	3.572575   
587.000000	3.790575   
587.500000	3.756401   
588.000000	3.850681   
588.500000	3.845537   
589.000000	3.855530   
589.500000	3.737159   
590.000000	3.900696   
590.500000	3.923113   
591.000000	3.781969   
591.500000	3.582250   
592.000000	3.609030   
592.500000	3.702287   
593.000000	3.839287   
593.500000	4.076924   
594.000000	4.379984   
594.500000	4.614734   
595.000000	4.673750   
595.500000	4.616083   
596.000000	4.547621   
596.500000	4.558537   
597.000000	4.743378   
597.500000	4.904931   
598.000000	4.980621   
598.500000	5.039810   
599.000000	5.125022   
599.500000	5.291310   
600.000000	5.616393   
600.500000	5.920818   
601.000000	5.753924   
601.500000	5.378803   
602.000000	5.212295   
602.500000	5.603780   
603.000000	5.973424   
603.500000	6.076265   
604.000000	5.938462   
604.500000	6.014030   
605.000000	6.274265   
605.500000	6.591371   
606.000000	6.748621   
606.500000	6.607022   
607.000000	6.568931   
607.500000	6.768340   
608.000000	7.338863   
608.500000	7.820704   
609.000000	8.011946   
609.500000	8.028454   
610.000000	8.058477   
610.500000	8.413537   
611.000000	8.772560   
611.500000	9.292742   
612.000000	9.686575   
612.500000	10.328772  
613.000000	10.593924  
613.500000	10.517962  
614.000000	10.276893  
614.500000	10.653628  
615.000000	11.331386  
615.500000	11.926462  
616.000000	12.001916  
616.500000	12.049871  
617.000000	12.318568  
617.500000	12.947659  
618.000000	13.549015  
618.500000	13.952848  
619.000000	14.228954  
619.500000	14.742977  
620.000000	15.623795  
620.500000	16.140939  
621.000000	16.291553  
621.500000	16.453166  
622.000000	17.192287  
622.500000	18.345196  
623.000000	19.320560  
623.500000	19.992856  
624.000000	20.259772  
624.500000	20.929696  
625.000000	21.741151  
625.500000	23.029068  
626.000000	23.834128  
626.500000	24.538522  
627.000000	25.241946  
627.500000	26.379583  
628.000000	27.452916  
628.500000	28.289863  
629.000000	29.341856  
629.500000	30.474939  
630.000000	31.793833  
630.500000	32.559295  
631.000000	33.397916  
631.500000	34.251462  
632.000000	35.974765  
632.500000	37.767174  
633.000000	39.694560  
633.500000	41.017757  
634.000000	42.561250  
634.500000	44.304734  
635.000000	46.139787  
635.500000	47.323219  
636.000000	48.339931  
636.500000	49.598575  
637.000000	51.027045  
637.500000	52.751484  
638.000000	55.052553  
638.500000	57.962159  
639.000000	60.238348  
639.500000	61.740151  
640.000000	63.136613  
640.500000	65.937348  
641.000000	68.636795  
641.500000	70.449507  
642.000000	71.707878  
642.500000	73.825924  
643.000000	77.057909  
643.500000	79.861045  
644.000000	82.550939  
644.500000	84.975250  
645.000000	87.954053  
645.500000	90.057484  
646.000000	92.427901  
646.500000	95.428871  
647.000000	99.120856  
647.500000	102.481848 
648.000000	104.919484 
648.500000	107.604568 
649.000000	110.023787 
649.500000	112.330878 
650.000000	114.146113 
650.500000	116.362916 
651.000000	119.151318 
651.500000	121.920946 
652.000000	124.832454 
652.500000	128.310992 
653.000000	133.106598 
653.500000	137.422053 
654.000000	139.801371 
654.500000	141.256795 
655.000000	144.061734 
655.500000	148.472689 
656.000000	152.251750 
656.500000	155.143378 
657.000000	158.471795 
657.500000	163.223446 
658.000000	167.772166 
658.500000	170.354659 
659.000000	171.414651 
659.500000	173.102750 
660.000000	176.893704 
660.500000	181.969659 
661.000000	186.037128 
661.500000	188.447977 
662.000000	190.397181 
662.500000	193.826340 
663.000000	198.209007 
663.500000	202.474977 
664.000000	205.410931 
664.500000	206.781401 
665.000000	207.815386 
665.500000	210.108151 
666.000000	214.367136 
666.500000	219.493727 
667.000000	223.486030 
667.500000	225.742416 
668.000000	227.274537 
668.500000	228.227484 
669.000000	229.008946 
669.500000	229.904257 
670.000000	232.854772 
670.500000	236.287583 
671.000000	239.346257 
671.500000	240.054166 
672.000000	241.823287 
672.500000	243.816068 
673.000000	246.141287 
673.500000	247.819401 
674.000000	250.246962 
674.500000	252.451454 
675.000000	253.445090 
675.500000	254.180780 
676.000000	254.623189 
676.500000	256.025765 
677.000000	257.113946 
677.500000	259.274060 
678.000000	260.273431 
678.500000	260.665083 
679.000000	259.601143 
679.500000	259.380386 
680.000000	259.727651 
680.500000	260.485522 
681.000000	260.267886 
681.500000	259.760727 
682.000000	259.962000 
682.500000	259.068893 
683.000000	256.642977 
683.500000	254.094643 
684.000000	254.197462 
684.500000	254.847151 
685.000000	254.360659 
685.500000	252.746484 
686.000000	251.730386 
686.500000	250.350628 
687.000000	247.676189 
687.500000	245.032659 
688.000000	243.535083 
688.500000	243.797575 
689.000000	243.344159 
689.500000	240.591371 
690.000000	236.057416 
690.500000	231.134303 
691.000000	228.105310 
691.500000	225.628053 
692.000000	222.443590 
692.500000	217.595212 
693.000000	213.305704 
693.500000	210.180522 
694.000000	207.577575 
694.500000	203.664719 
695.000000	198.808250 
695.500000	194.684992 
696.000000	190.596174 
696.500000	186.817909 
697.000000	182.100484 
697.500000	176.461568 
698.000000	169.785227 
698.500000	163.867401 
699.000000	159.339439 
699.500000	156.575363 
700.000000	153.430878 
700.500000	150.240424 
701.000000	146.457045 
701.500000	142.498098 
702.000000	138.383636 
702.500000	135.348053 
703.000000	132.699030 
703.500000	128.984151 
704.000000	123.720909 
704.500000	118.813287 
705.000000	115.517469 
705.500000	112.777878 
706.000000	110.001431 
706.500000	107.208969 
707.000000	104.908325 
707.500000	102.305174 
708.000000	99.190356  
708.500000	95.795931  
709.000000	92.243825  
709.500000	89.533522  
710.000000	88.078772  
710.500000	87.001924  
711.000000	84.442560  
711.500000	80.661803  
712.000000	76.870969  
712.500000	74.650363  
713.000000	73.092045  
713.500000	71.474053  
714.000000	69.419886  
714.500000	67.365878  
715.000000	65.581598  
715.500000	63.940893  
716.000000	61.974401  
716.500000	59.689575  
717.000000	57.466060  
717.500000	55.716909  
718.000000	54.259681  
718.500000	52.266750  
719.000000	50.258939  
719.500000	48.842833  
720.000000	47.883924  
720.500000	46.596128  
721.000000	45.047098  
721.500000	44.037310  
722.000000	43.236333  
722.500000	41.623606  
723.000000	39.896348  
723.500000	39.136530  
724.000000	38.949446  
724.500000	37.895537  
725.000000	36.034196  
725.500000	34.095742  
726.000000	32.760992  
726.500000	31.668272  
727.000000	31.204136  
727.500000	30.830295  
728.000000	29.930954  
728.500000	28.604530  
729.000000	27.575159  
729.500000	27.300257  
730.000000	26.826318  
730.500000	26.213318  
731.000000	25.395098  
731.500000	24.600507  
732.000000	23.366909  
732.500000	22.105757  
733.000000	21.416045  
733.500000	21.366371  
734.000000	21.528984  
734.500000	21.506871  
735.000000	21.193848  
735.500000	20.448007  
736.000000	19.794015  
736.500000	19.194848  
737.000000	18.528598  
737.500000	17.468250  
738.000000	16.571765  
738.500000	16.294431  
739.000000	16.461795  
739.500000	16.098454  
740.000000	15.432439  
740.500000	14.776696  
741.000000	14.775530  
741.500000	14.881606  
742.000000	14.518507  
742.500000	14.011583  
743.000000	13.621053  
743.500000	13.253939  
744.000000	12.719363  
744.500000	12.415106  
745.000000	12.383030  
745.500000	12.200848  
746.000000	11.317712  
746.500000	10.667818  
747.000000	10.628333  
747.500000	11.067439  
748.000000	11.255098  
748.500000	11.183257  
749.000000	10.748765  
749.500000	10.300772  
750.000000	9.670696   
750.500000	9.239015   
751.000000	9.103696   
751.500000	9.261803   
752.000000	9.416234   
752.500000	9.191083   
753.000000	8.671371   
753.500000	8.113204   
754.000000	7.910378   
754.500000	7.930477   
755.000000	7.973825   
755.500000	7.842000   
756.000000	7.818833   
756.500000	7.791348   
757.000000	7.867530   
757.500000	7.709704   
758.000000	7.543515   
758.500000	7.343007   
759.000000	7.215128   
759.500000	7.037606   
760.000000	6.864250   
760.500000	6.619939   
761.000000	6.385249   
761.500000	6.165439   
762.000000	6.053772   
762.500000	6.068772   
763.000000	6.203113   
763.500000	6.156931   
764.000000	6.053833   
764.500000	5.885143   
765.000000	5.759249   
765.500000	5.501136   
766.000000	5.271068   
766.500000	5.290204   
767.000000	5.507000   
767.500000	5.660174   
768.000000	5.682689   
768.500000	5.343106   
769.000000	4.692181   
769.500000	4.158128   
770.000000	4.370659   
770.500000	4.791378   
771.000000	5.079068   
771.500000	4.919613   
772.000000	4.887303   
772.500000	4.551696   
773.000000	4.110825   
773.500000	3.762189   
774.000000	3.900734   
774.500000	4.139272   
775.000000	4.239833   
775.500000	4.070303   
776.000000	3.770840   
776.500000	3.504939   
777.000000	3.322712   
777.500000	3.289083   
778.000000	3.360863   
778.500000	3.417409   
779.000000	3.508431   
779.500000	3.457431   
780.000000	3.369212   
780.500000	3.235340   
781.000000	3.292681   
781.500000	3.446212   
782.000000	3.579318   
782.500000	3.497174   
783.000000	3.375651   
783.500000	3.331583   
784.000000	3.330416   
784.500000	3.304636   
785.000000	3.262333   
785.500000	3.235893   
786.000000	3.188075   
786.500000	3.142136   
787.000000	3.159621   
787.500000	3.162318   
788.000000	3.210439   
788.500000	3.192446   
789.000000	3.204878   
789.500000	3.090780   
790.000000	3.026045   
790.500000	2.878159   
791.000000	2.857250   
791.500000	2.806560   
792.000000	2.887106   
792.500000	2.833719   
793.000000	2.802045   
793.500000	2.803878   
794.000000	2.825318   
794.500000	2.735916   
795.000000	2.521742   
795.500000	2.508719   
796.000000	2.652015   
796.500000	2.862340   
797.000000	2.785863   
797.500000	2.628674   
798.000000	2.428090   
798.500000	2.400500   
799.000000	2.515636   
799.500000	2.696469   
800.000000	2.830931   
800.500000	2.692871   
801.000000	2.390803   
801.500000	2.110719   
802.000000	2.111348   
802.500000	2.231159   
803.000000	2.151757   
803.500000	1.932886   
804.000000	1.999113   
804.500000	2.217409   
805.000000	2.212643   
805.500000	1.926954   
806.000000	1.895068   
806.500000	2.239310   
807.000000	2.545030   
807.500000	2.344363   
808.000000	1.937189   
808.500000	1.772037   
809.000000	1.884886   
809.500000	2.035439   
810.000000	1.981333   
810.500000	1.860893   
811.000000	1.764446   
811.500000	1.677143   
812.000000	1.702068   
812.500000	1.744333   
813.000000	1.875628   
813.500000	1.874234   
814.000000	1.926204   
814.500000	1.723666   
815.000000	1.585674   
815.500000	1.488848   
816.000000	1.532628   
816.500000	1.464515   
817.000000	1.495128   
817.500000	1.651537   
818.000000	1.767015   
818.500000	1.713015   
819.000000	1.605553   
819.500000	1.573242   
820.000000	1.601325   
820.500000	1.746537   
821.000000	1.949727   
821.500000	2.046439   
822.000000	2.115446   
822.500000	2.301977   
823.000000	2.577507   
823.500000	2.733280   
824.000000	2.770727   
824.500000	2.785757   
825.000000	2.736469   
825.500000	2.565250   
826.000000	2.343750   
826.500000	2.348303   
827.000000	2.340871   
827.500000	2.350727   
828.000000	2.065689   
828.500000	1.666378   
829.000000	1.250916   
829.500000	1.275303   
830.000000	1.502568   
830.500000	1.684825   
831.000000	1.460583   
831.500000	1.159250   
832.000000	1.049272   
832.500000	1.012310   
833.000000	0.979954   
833.500000	0.971742   
834.000000	1.018969   
834.500000	1.040174   
835.000000	1.113719   
835.500000	1.162628   
836.000000	1.207522   
836.500000	1.055287   
837.000000	0.815962   
837.500000	0.645439   
838.000000	0.625303   
838.500000	0.697962   
839.000000	0.723643   
839.500000	0.701765   
840.000000	0.635962   
840.500000	0.613772   
841.000000	0.559750   
841.500000	0.586075   
842.000000	0.628871   
842.500000	0.678151   
843.000000	0.589992   
843.500000	0.450924   
844.000000	0.408371   
844.500000	0.423621   
845.000000	0.418424   
845.500000	0.315621   
846.000000	0.339780   
846.500000	0.439356   
847.000000	0.488931   
847.500000	0.318401   
848.000000	0.127984   
848.500000	0.129325   
849.000000	0.224333   
849.500000	0.300151   
850.000000	0.235045   
850.500000	0.209189   
851.000000	0.174613   
851.500000	0.145787   
852.000000	0.140530   
852.500000	0.235227   
853.000000	0.368590   
853.500000	0.358962   
854.000000	0.219431   
854.500000	0.062318   
855.000000	0.027931   
855.500000	0.065431   
856.000000	0.120409   
856.500000	0.127575   
857.000000	0.060606   
857.500000	-0.039628  
858.000000	-0.078037  
858.500000	-0.026825  
859.000000	0.026984   
859.500000	0.059946   
860.000000	0.062833   
860.500000	0.194113   
861.000000	0.313696   
861.500000	0.390325   
862.000000	0.325348   
862.500000	0.161992   
863.000000	-0.048333  
863.500000	-0.175856  
864.000000	-0.218530  
864.500000	-0.193371  
865.000000	-0.157909  
865.500000	-0.180310  
866.000000	-0.198000  
866.500000	-0.182128  
867.000000	-0.112439  
867.500000	-0.058053  
868.000000	-0.065340  
868.500000	-0.092439  
869.000000	-0.031204  
869.500000	0.056159   
870.000000	0.181507   
870.500000	0.166416   
871.000000	0.065606   
871.500000	-0.106446  
872.000000	-0.125674  
872.500000	-0.107598  
873.000000	-0.047780  
873.500000	-0.020772  
874.000000	0.033083   
874.500000	0.134386   
875.000000	0.235818   
875.500000	0.319136   
876.000000	0.310037   
876.500000	0.260590   
877.000000	0.155484   
877.500000	0.011909   
878.000000	-0.133712  
878.500000	-0.144590  
879.000000	-0.023977  
879.500000	0.078772   
880.000000	0.115257   
880.500000	0.043272   
881.000000	-0.048659  
881.500000	-0.116401  
882.000000	-0.106946  
882.500000	-0.067500  
883.000000	-0.005371  
883.500000	0.009333   
884.000000	0.044886   
884.500000	-0.075999  
885.000000	-0.210227  
885.500000	-0.300825  
886.000000	-0.184939  
886.500000	-0.039984  
887.000000	0.030469   
887.500000	-0.021484  
888.000000	-0.103530  
888.500000	-0.200030  
889.000000	-0.183810  
889.500000	-0.042462  
890.000000	0.077393   
890.500000	0.002772   
891.000000	-0.136136  
891.500000	-0.174545  
892.000000	-0.039598  
892.500000	0.042689   
893.000000	0.041765   
893.500000	-0.032416  
894.000000	-0.077090  
894.500000	-0.113742  
895.000000	-0.136378  
895.500000	-0.120530  
896.000000	-0.056469  
896.500000	-0.004386  
897.000000	-0.018424  
897.500000	-0.018037  
898.000000	0.005795   
898.500000	0.087621   
899.000000	0.118765   
899.500000	0.113666   
900.000000	-0.025515  
900.500000	-0.266000  

