PE FL                   SPECTRUM    ASCII       PEDS        1.60        
  -1
S12#18.SP
24/04/15
15:20:31.00
24/04/15
15:21:57.00
Jan

900.500000
1









LS55
405.00
5.00
5.00
SCAN
1
20
100
100
0
400
0
1
0
1
5
ON
900 405 
1 0 0
#HDR
-1
-1
#GR
NM

0.00002384185791015625
0.0
450.000000
0.500000
902
8
273.497651
-0.352681
#DATA
450.000000	-0.303999  
450.500000	-0.144522  
451.000000	-0.095022  
451.500000	-0.182386  
452.000000	-0.218818  
452.500000	-0.161537  
453.000000	-0.075378  
453.500000	-0.034174  
454.000000	-0.059757  
454.500000	-0.029810  
455.000000	0.051878   
455.500000	0.194454   
456.000000	0.191628   
456.500000	0.104560   
457.000000	-0.007189  
457.500000	-0.054196  
458.000000	-0.046196  
458.500000	0.029090   
459.000000	0.054098   
459.500000	-0.018189  
460.000000	-0.145295  
460.500000	-0.093598  
461.000000	-0.017106  
461.500000	0.039696   
462.000000	-0.031090  
462.500000	0.036098   
463.000000	0.046249   
463.500000	-0.021719  
464.000000	-0.110818  
464.500000	-0.013734  
465.000000	0.133424   
465.500000	0.117439   
466.000000	0.049704   
466.500000	0.034568   
467.000000	0.217439   
467.500000	0.280712   
468.000000	0.135257   
468.500000	-0.100219  
469.000000	-0.096030  
469.500000	-0.053310  
470.000000	0.008803   
470.500000	-0.012621  
471.000000	0.004068   
471.500000	-0.082037  
472.000000	-0.180174  
472.500000	-0.135522  
473.000000	0.062454   
473.500000	0.160931   
474.000000	0.175833   
474.500000	0.218515   
475.000000	0.227939   
475.500000	0.106189   
476.000000	-0.149969  
476.500000	-0.141886  
477.000000	0.001742   
477.500000	0.167121   
478.000000	0.134939   
478.500000	0.031424   
479.000000	-0.088643  
479.500000	-0.045727  
480.000000	0.090765   
480.500000	0.140946   
481.000000	0.070977   
481.500000	-0.082606  
482.000000	-0.049515  
482.500000	-0.054606  
483.000000	-0.046333  
483.500000	-0.064462  
484.000000	0.047659   
484.500000	0.134621   
485.000000	0.223878   
485.500000	0.130113   
486.000000	-0.001484  
486.500000	-0.150242  
487.000000	-0.025840  
487.500000	0.107560   
488.000000	0.258303   
488.500000	0.263121   
489.000000	0.296272   
489.500000	0.325606   
490.000000	0.296219   
490.500000	0.082583   
491.000000	-0.185674  
491.500000	-0.352681  
492.000000	-0.253234  
492.500000	-0.031916  
493.000000	0.127803   
493.500000	0.162303   
494.000000	0.269727   
494.500000	0.515772   
495.000000	0.781098   
495.500000	0.784348   
496.000000	0.582613   
496.500000	0.412742   
497.000000	0.359833   
497.500000	0.339749   
498.000000	0.279651   
498.500000	0.340560   
499.000000	0.554628   
499.500000	0.798204   
500.000000	0.939992   
500.500000	0.971901   
501.000000	0.885219   
501.500000	0.801522   
502.000000	0.901628   
502.500000	1.176356   
503.000000	1.352856   
503.500000	1.212250   
504.000000	0.951424   
504.500000	0.935969   
505.000000	1.065128   
505.500000	1.357181   
506.000000	1.579189   
506.500000	1.803560   
507.000000	1.876098   
507.500000	2.013651   
508.000000	2.290151   
508.500000	2.503196   
509.000000	2.602916   
509.500000	2.485765   
510.000000	2.589363   
510.500000	2.674143   
511.000000	2.868606   
511.500000	2.905484   
512.000000	2.916515   
512.500000	2.892212   
513.000000	2.857810   
513.500000	2.927840   
514.000000	3.051621   
514.500000	3.225257   
515.000000	3.238545   
515.500000	3.164871   
516.000000	3.091143   
516.500000	3.205204   
517.000000	3.473727   
517.500000	3.602863   
518.000000	3.493166   
518.500000	3.211734   
519.000000	3.043757   
519.500000	3.060037   
520.000000	3.165916   
520.500000	3.233174   
521.000000	3.342189   
521.500000	3.502924   
522.000000	3.631515   
522.500000	3.699242   
523.000000	3.790651   
523.500000	3.850500   
524.000000	3.844628   
524.500000	3.650204   
525.000000	3.684863   
525.500000	4.029712   
526.000000	4.728901   
526.500000	5.048507   
527.000000	5.034530   
527.500000	4.614643   
528.000000	4.317765   
528.500000	4.283606   
529.000000	4.592765   
529.500000	4.970909   
530.000000	5.133136   
530.500000	5.131128   
531.000000	5.169946   
531.500000	5.557765   
532.000000	6.165651   
532.500000	6.527924   
533.000000	6.497719   
533.500000	6.356280   
534.000000	6.863181   
534.500000	7.360007   
535.000000	7.768204   
535.500000	7.831795   
536.000000	8.349984   
536.500000	8.994613   
537.000000	9.609469   
537.500000	9.938787   
538.000000	10.444363  
538.500000	10.801727  
539.000000	11.263727  
539.500000	11.833462  
540.000000	12.592924  
540.500000	13.319128  
541.000000	13.670136  
541.500000	13.841416  
542.000000	14.153015  
542.500000	14.511515  
543.000000	14.287856  
543.500000	13.666530  
544.000000	12.935848  
544.500000	12.762128  
545.000000	12.786878  
545.500000	12.493871  
546.000000	11.711545  
546.500000	10.573492  
547.000000	9.560272   
547.500000	8.849545   
548.000000	8.412174   
548.500000	8.101068   
549.000000	7.883689   
549.500000	7.420068   
550.000000	6.615469   
550.500000	5.767484   
551.000000	5.266318   
551.500000	5.028310   
552.000000	4.627969   
552.500000	4.137189   
553.000000	3.911386   
553.500000	3.941371   
554.000000	3.866674   
554.500000	3.605363   
555.000000	3.367530   
555.500000	3.281037   
556.000000	3.357196   
556.500000	3.552196   
557.000000	3.732287   
557.500000	3.729651   
558.000000	3.481295   
558.500000	3.188575   
559.000000	3.165393   
559.500000	3.443863   
560.000000	3.825272   
560.500000	3.890575   
561.000000	3.620416   
561.500000	3.201113   
562.000000	3.033340   
562.500000	3.194780   
563.000000	3.555015   
563.500000	3.838272   
564.000000	3.890128   
564.500000	3.931712   
565.000000	3.850924   
565.500000	3.682181   
566.000000	3.334242   
566.500000	3.099492   
567.000000	2.992962   
567.500000	3.060348   
568.000000	3.223598   
568.500000	3.442583   
569.000000	3.478196   
569.500000	3.335613   
570.000000	3.108977   
570.500000	3.127795   
571.000000	3.302977   
571.500000	3.545477   
572.000000	3.534477   
572.500000	3.454295   
573.000000	3.427227   
573.500000	3.731401   
574.000000	3.960204   
574.500000	4.014901   
575.000000	3.766962   
575.500000	3.545143   
576.000000	3.304136   
576.500000	3.264083   
577.000000	3.254984   
577.500000	3.421416   
578.000000	3.490515   
578.500000	3.498750   
579.000000	3.433568   
579.500000	3.422651   
580.000000	3.415128   
580.500000	3.588621   
581.000000	3.866969   
581.500000	4.119659   
582.000000	4.137674   
582.500000	3.866840   
583.000000	3.471060   
583.500000	3.263060   
584.000000	3.371136   
584.500000	3.575734   
585.000000	3.776757   
585.500000	3.927234   
586.000000	4.105462   
586.500000	4.087696   
587.000000	4.013659   
587.500000	4.022772   
588.000000	4.038522   
588.500000	3.935462   
589.000000	3.770431   
589.500000	3.691878   
590.000000	3.658083   
590.500000	3.689401   
591.000000	3.884681   
591.500000	4.013734   
592.000000	4.039431   
592.500000	3.934621   
593.000000	4.003757   
593.500000	3.922007   
594.000000	3.884856   
594.500000	4.075704   
595.000000	4.539242   
595.500000	4.754962   
596.000000	4.777598   
596.500000	4.631416   
597.000000	4.466068   
597.500000	4.270431   
598.000000	4.257568   
598.500000	4.589537   
599.000000	5.077931   
599.500000	5.316992   
600.000000	5.325424   
600.500000	5.397765   
601.000000	5.376196   
601.500000	5.370553   
602.000000	5.433143   
602.500000	5.747030   
603.000000	6.298583   
603.500000	6.728999   
604.000000	6.969727   
604.500000	6.978969   
605.000000	6.742378   
605.500000	6.330939   
606.000000	6.289727   
606.500000	6.716068   
607.000000	7.216886   
607.500000	7.448833   
608.000000	7.379977   
608.500000	7.594909   
609.000000	8.009727   
609.500000	8.441348   
610.000000	8.659507   
610.500000	8.974848   
611.000000	9.293659   
611.500000	9.499962   
612.000000	9.400871   
612.500000	9.291454   
613.000000	9.728325   
613.500000	10.428583  
614.000000	10.981454  
614.500000	10.944166  
615.000000	11.069356  
615.500000	11.261757  
616.000000	11.755780  
616.500000	11.912712  
617.000000	12.262969  
617.500000	12.867469  
618.000000	14.041386  
618.500000	14.880916  
619.000000	15.068765  
619.500000	14.920628  
620.000000	15.197151  
620.500000	15.780409  
621.000000	16.193840  
621.500000	16.577143  
622.000000	17.231121  
622.500000	18.148545  
623.000000	19.016045  
623.500000	19.868037  
624.000000	20.510439  
624.500000	21.142666  
625.000000	22.132946  
625.500000	23.490098  
626.000000	24.470916  
626.500000	25.047113  
627.000000	25.758113  
627.500000	26.913992  
628.000000	28.054159  
628.500000	28.736636  
629.000000	29.050393  
629.500000	29.565348  
630.000000	30.917871  
630.500000	32.701590  
631.000000	34.640712  
631.500000	36.103469  
632.000000	37.773181  
632.500000	39.115886  
633.000000	40.149507  
633.500000	40.397924  
634.000000	41.233871  
634.500000	42.534348  
635.000000	44.692765  
635.500000	46.968333  
636.000000	49.052659  
636.500000	50.351166  
637.000000	51.802227  
637.500000	54.010219  
638.000000	56.860083  
638.500000	59.197227  
639.000000	61.060810  
639.500000	62.329431  
640.000000	63.693696  
640.500000	65.509878  
641.000000	68.725189  
641.500000	72.004363  
642.000000	74.741681  
642.500000	75.796749  
643.000000	76.791409  
643.500000	78.248946  
644.000000	80.993803  
644.500000	84.699068  
645.000000	88.782689  
645.500000	91.651295  
646.000000	93.700856  
646.500000	95.168409  
647.000000	97.281265  
647.500000	100.339295 
648.000000	104.213909 
648.500000	108.041295 
649.000000	111.162007 
649.500000	113.495522 
650.000000	116.081492 
650.500000	118.959522 
651.000000	121.358833 
651.500000	123.871992 
652.000000	127.009840 
652.500000	130.754765 
653.000000	133.950431 
653.500000	136.805613 
654.000000	140.584068 
654.500000	144.434810 
655.000000	146.989636 
655.500000	149.105840 
656.000000	153.089143 
656.500000	157.897681 
657.000000	162.508727 
657.500000	165.879242 
658.000000	169.403393 
658.500000	173.257810 
659.000000	176.300295 
659.500000	179.051075 
660.000000	181.207825 
660.500000	183.665303 
661.000000	185.877636 
661.500000	189.762310 
662.000000	194.261840 
662.500000	199.310174 
663.000000	203.322712 
663.500000	206.131015 
664.000000	209.599446 
664.500000	213.132227 
665.000000	216.706439 
665.500000	219.227833 
666.000000	220.681659 
666.500000	221.779742 
667.000000	223.528318 
667.500000	226.666886 
668.000000	229.853757 
668.500000	232.719189 
669.000000	234.775106 
669.500000	237.879272 
670.000000	241.454318 
670.500000	244.265598 
671.000000	247.145348 
671.500000	251.127250 
672.000000	256.295303 
672.500000	258.283340 
673.000000	256.649939 
673.500000	253.873856 
674.000000	254.530871 
674.500000	257.114030 
675.000000	259.505106 
675.500000	261.025348 
676.000000	263.261840 
676.500000	264.365462 
677.000000	264.661090 
677.500000	264.543545 
678.000000	266.727568 
678.500000	268.331477 
679.000000	269.213083 
679.500000	269.011401 
680.000000	270.632803 
680.500000	272.646181 
681.000000	273.497651 
681.500000	272.863689 
682.000000	270.770931 
682.500000	269.649348 
683.000000	268.677795 
683.500000	268.686000 
684.000000	268.741053 
684.500000	268.972356 
685.000000	267.553674 
685.500000	264.372030 
686.000000	262.402196 
686.500000	261.488833 
687.000000	261.247681 
687.500000	258.690318 
688.000000	255.012598 
688.500000	249.540128 
689.000000	245.234272 
689.500000	242.905803 
690.000000	243.268659 
690.500000	242.177439 
691.000000	238.445742 
691.500000	232.747378 
692.000000	228.768886 
692.500000	225.529848 
693.000000	222.424742 
693.500000	217.888901 
694.000000	213.363113 
694.500000	209.937992 
695.000000	206.587007 
695.500000	202.657272 
696.000000	197.215750 
696.500000	192.503356 
697.000000	188.315113 
697.500000	185.142106 
698.000000	179.972469 
698.500000	174.067128 
699.000000	169.133704 
699.500000	166.562500 
700.000000	163.363098 
700.500000	157.894636 
701.000000	152.218121 
701.500000	148.894000 
702.000000	146.916795 
702.500000	143.575469 
703.000000	138.247143 
703.500000	133.555704 
704.000000	130.657257 
704.500000	128.303916 
705.000000	124.837924 
705.500000	120.916204 
706.000000	117.543287 
706.500000	114.494871 
707.000000	110.152803 
707.500000	105.743037 
708.000000	102.583446 
708.500000	101.097522 
709.000000	99.607106  
709.500000	96.970818  
710.000000	93.370287  
710.500000	90.239545  
711.000000	87.514704  
711.500000	84.962090  
712.000000	82.902242  
712.500000	81.612431  
713.000000	79.960545  
713.500000	76.975416  
714.000000	73.016439  
714.500000	69.897325  
715.000000	67.591181  
715.500000	66.252409  
716.000000	65.491704  
716.500000	65.025560  
717.000000	63.241136  
717.500000	60.884689  
718.000000	58.368454  
718.500000	56.514636  
719.000000	54.589810  
719.500000	52.682795  
720.000000	50.769946  
720.500000	49.073787  
721.000000	47.813765  
721.500000	46.813272  
722.000000	46.043477  
722.500000	44.873136  
723.000000	43.165803  
723.500000	41.259727  
724.000000	39.503522  
724.500000	38.613492  
725.000000	37.471037  
725.500000	36.040174  
726.000000	34.361590  
726.500000	33.821348  
727.000000	33.500833  
727.500000	32.776371  
728.000000	31.062174  
728.500000	29.522439  
729.000000	28.462151  
729.500000	27.750742  
730.000000	27.062196  
730.500000	26.365530  
731.000000	25.809560  
731.500000	25.278568  
732.000000	24.853606  
732.500000	24.459613  
733.000000	24.338712  
733.500000	23.892272  
734.000000	23.168856  
734.500000	21.749265  
735.000000	20.649568  
735.500000	20.039568  
736.000000	19.958575  
736.500000	19.505356  
737.000000	18.946636  
737.500000	18.382651  
738.000000	18.031765  
738.500000	17.530265  
739.000000	16.953560  
739.500000	16.371250  
740.000000	15.842530  
740.500000	15.406750  
741.000000	15.275651  
741.500000	15.285780  
742.000000	15.197431  
742.500000	14.591530  
743.000000	13.867742  
743.500000	13.231257  
744.000000	13.179606  
744.500000	13.208848  
745.000000	13.022166  
745.500000	12.342204  
746.000000	11.798818  
746.500000	11.701166  
747.000000	12.099545  
747.500000	12.277416  
748.000000	11.994439  
748.500000	11.361196  
749.000000	10.835848  
749.500000	10.423727  
750.000000	9.927333   
750.500000	9.714325   
751.000000	9.692545   
751.500000	9.873863   
752.000000	9.534749   
752.500000	8.949590   
753.000000	8.167825   
753.500000	7.809484   
754.000000	7.880939   
754.500000	8.180901   
755.000000	8.407939   
755.500000	8.132469   
756.000000	7.848090   
756.500000	7.443128   
757.000000	7.439840   
757.500000	7.471340   
758.000000	7.752977   
758.500000	7.794772   
759.000000	7.643560   
759.500000	7.173696   
760.000000	6.724363   
760.500000	6.421946   
761.000000	6.458386   
761.500000	6.524477   
762.000000	6.359416   
762.500000	6.284159   
763.000000	6.373159   
763.500000	6.448166   
764.000000	6.221053   
764.500000	5.875265   
765.000000	5.624545   
765.500000	5.612462   
766.000000	5.516606   
766.500000	5.339787   
767.000000	5.188272   
767.500000	5.085613   
768.000000	5.161303   
768.500000	4.944356   
769.000000	4.599340   
769.500000	4.391863   
770.000000	4.712303   
770.500000	5.129469   
771.000000	5.277446   
771.500000	4.865992   
772.000000	4.377825   
772.500000	4.106666   
773.000000	4.065590   
773.500000	4.104128   
774.000000	4.070128   
774.500000	4.082507   
775.000000	4.018219   
775.500000	3.886318   
776.000000	3.663765   
776.500000	3.578007   
777.000000	3.577727   
777.500000	3.801181   
778.000000	3.990249   
778.500000	3.931007   
779.000000	3.711871   
779.500000	3.625878   
780.000000	3.828659   
780.500000	4.001886   
781.000000	4.073196   
781.500000	3.891363   
782.000000	3.619530   
782.500000	3.302651   
783.000000	3.131681   
783.500000	3.042992   
784.000000	3.060818   
784.500000	3.120075   
785.000000	3.192424   
785.500000	3.243166   
786.000000	3.271651   
786.500000	3.273818   
787.000000	3.198886   
787.500000	3.151856   
788.000000	3.174106   
788.500000	3.190386   
789.000000	3.116689   
789.500000	3.029712   
790.000000	3.015590   
790.500000	3.030045   
791.000000	3.047174   
791.500000	2.981401   
792.000000	2.809765   
792.500000	2.724621   
793.000000	2.759560   
793.500000	2.916984   
794.000000	2.955454   
794.500000	2.860037   
795.000000	2.688363   
795.500000	2.666545   
796.000000	2.678386   
796.500000	2.656719   
797.000000	2.623431   
797.500000	2.614606   
798.000000	2.585053   
798.500000	2.566954   
799.000000	2.563310   
799.500000	2.595803   
800.000000	2.572280   
800.500000	2.475666   
801.000000	2.372287   
801.500000	2.352636   
802.000000	2.453462   
802.500000	2.492553   
803.000000	2.399507   
803.500000	2.162446   
804.000000	2.107386   
804.500000	2.154621   
805.000000	2.282265   
805.500000	2.338962   
806.000000	2.411068   
806.500000	2.264856   
807.000000	2.142939   
807.500000	2.060977   
808.000000	2.167613   
808.500000	2.111643   
809.000000	1.916015   
809.500000	1.666113   
810.000000	1.725848   
810.500000	2.009325   
811.000000	2.186181   
811.500000	2.128265   
812.000000	1.962234   
812.500000	1.899969   
813.000000	1.877939   
813.500000	1.920189   
814.000000	1.914053   
814.500000	1.843871   
815.000000	1.716659   
815.500000	1.558803   
816.000000	1.516787   
816.500000	1.437462   
817.000000	1.369962   
817.500000	1.350295   
818.000000	1.421742   
818.500000	1.588598   
819.000000	1.784295   
819.500000	1.885772   
820.000000	1.852219   
820.500000	1.895893   
821.000000	2.057871   
821.500000	2.278189   
822.000000	2.358613   
822.500000	2.456022   
823.000000	2.566636   
823.500000	2.648242   
824.000000	2.500931   
824.500000	2.423439   
825.000000	2.384257   
825.500000	2.442575   
826.000000	2.231219   
826.500000	2.088053   
827.000000	2.056757   
827.500000	2.138378   
828.000000	2.014295   
828.500000	1.965416   
829.000000	1.954265   
829.500000	1.919681   
830.000000	1.594204   
830.500000	1.425545   
831.000000	1.493083   
831.500000	1.701424   
832.000000	1.576136   
832.500000	1.397098   
833.000000	1.124659   
833.500000	0.934424   
834.000000	0.786810   
834.500000	0.739621   
835.000000	0.689462   
835.500000	0.646606   
836.000000	0.753333   
836.500000	0.839863   
837.000000	0.897893   
837.500000	0.824219   
838.000000	0.870666   
838.500000	0.930500   
839.000000	0.908643   
839.500000	0.776727   
840.000000	0.528636   
840.500000	0.462999   
841.000000	0.530689   
841.500000	0.736765   
842.000000	0.781606   
842.500000	0.732659   
843.000000	0.639272   
843.500000	0.608484   
844.000000	0.649878   
844.500000	0.660803   
845.000000	0.615242   
845.500000	0.455939   
846.000000	0.433651   
846.500000	0.505136   
847.000000	0.528424   
847.500000	0.491636   
848.000000	0.432878   
848.500000	0.401568   
849.000000	0.314825   
849.500000	0.335750   
850.000000	0.406651   
850.500000	0.464598   
851.000000	0.397121   
851.500000	0.330356   
852.000000	0.356053   
852.500000	0.391939   
853.000000	0.334257   
853.500000	0.154037   
854.000000	-0.074068  
854.500000	-0.177416  
855.000000	-0.057803  
855.500000	0.168757   
856.000000	0.252469   
856.500000	0.215992   
857.000000	0.060598   
857.500000	-0.029477  
858.000000	-0.046143  
858.500000	-0.009060  
859.000000	0.041856   
859.500000	0.078689   
860.000000	0.110636   
860.500000	0.053916   
861.000000	-0.026659  
861.500000	-0.042977  
862.000000	0.137613   
862.500000	0.214636   
863.000000	0.149318   
863.500000	-0.016719  
864.000000	-0.013484  
864.500000	0.070068   
865.000000	0.158613   
865.500000	0.136651   
866.000000	0.091424   
866.500000	0.057431   
867.000000	-0.025469  
867.500000	-0.093901  
868.000000	-0.157250  
868.500000	-0.038598  
869.000000	0.048666   
869.500000	0.096871   
870.000000	-0.056386  
870.500000	-0.117719  
871.000000	-0.150946  
871.500000	-0.086348  
872.000000	-0.003893  
872.500000	0.049636   
873.000000	0.029598   
873.500000	0.000060   
874.000000	0.083371   
874.500000	0.163484   
875.000000	0.128772   
875.500000	-0.023469  
876.000000	-0.077590  
876.500000	-0.107560  
877.000000	-0.210416  
877.500000	-0.319181  
878.000000	-0.279530  
878.500000	-0.118886  
879.000000	-0.047568  
879.500000	-0.109780  
880.000000	-0.216136  
880.500000	-0.212265  
881.000000	-0.157015  
881.500000	-0.054166  
882.000000	-0.004992  
882.500000	-0.006454  
883.000000	-0.088159  
883.500000	-0.118037  
884.000000	-0.050803  
884.500000	0.008212   
885.000000	-0.040689  
885.500000	-0.140272  
886.000000	-0.110303  
886.500000	0.054583   
887.000000	0.184325   
887.500000	0.139992   
888.000000	0.020628   
888.500000	-0.069287  
889.000000	-0.041469  
889.500000	0.031893   
890.000000	0.091136   
890.500000	0.084416   
891.000000	0.095045   
891.500000	0.160416   
892.000000	0.192401   
892.500000	0.113098   
893.000000	-0.051310  
893.500000	-0.124750  
894.000000	-0.097606  
894.500000	-0.066977  
895.000000	-0.064053  
895.500000	-0.011477  
896.000000	0.080106   
896.500000	0.133015   
897.000000	0.093371   
897.500000	-0.010106  
898.000000	-0.065174  
898.500000	-0.055651  
899.000000	-0.008772  
899.500000	0.074848   
900.000000	0.194628   
900.500000	0.370000   

