PE FL                   SPECTRUM    ASCII       PEDS        1.60        
  -1
S12#15.SP
24/04/15
15:16:14.00
24/04/15
15:17:40.00
Jan

900.500000
1









LS55
405.00
5.00
5.00
SCAN
1
20
100
100
0
400
0
1
0
1
5
ON
900 405 
1 0 0
#HDR
-1
-1
#GR
NM

0.00002384185791015625
0.0
450.000000
0.500000
902
8
283.617446
-0.868000
#DATA
450.000000	-0.000999  
450.500000	0.021280   
451.000000	0.088863   
451.500000	0.162265   
452.000000	0.157280   
452.500000	0.000318   
453.000000	-0.039128  
453.500000	0.051553   
454.000000	0.217333   
454.500000	0.218439   
455.000000	0.124477   
455.500000	0.026492   
456.000000	-0.051583  
456.500000	-0.079681  
457.000000	-0.027530  
457.500000	0.008560   
458.000000	-0.023136  
458.500000	-0.052727  
459.000000	0.043030   
459.500000	0.234537   
460.000000	0.291272   
460.500000	0.057878   
461.000000	-0.171000  
461.500000	-0.182219  
462.000000	-0.004681  
462.500000	0.029022   
463.000000	-0.043280  
463.500000	-0.019696  
464.000000	0.210878   
464.500000	0.337886   
465.000000	0.272553   
465.500000	0.111431   
466.000000	0.067962   
466.500000	0.068522   
467.000000	0.114348   
467.500000	0.069727   
468.000000	-0.013136  
468.500000	-0.063939  
469.000000	-0.021401  
469.500000	0.018234   
470.000000	-0.046590  
470.500000	-0.163931  
471.000000	-0.131598  
471.500000	0.070121   
472.000000	0.150378   
472.500000	0.052386   
473.000000	-0.010469  
473.500000	0.025962   
474.000000	0.136689   
474.500000	0.127765   
475.000000	0.095484   
475.500000	0.088219   
476.000000	0.150401   
476.500000	0.087469   
477.000000	0.108810   
477.500000	0.194356   
478.000000	0.357674   
478.500000	0.298522   
479.000000	0.168969   
479.500000	0.080977   
480.000000	0.162742   
480.500000	0.157878   
481.000000	0.074212   
481.500000	-0.003371  
482.000000	0.073037   
482.500000	0.222075   
483.000000	0.306772   
483.500000	0.203189   
484.000000	0.112583   
484.500000	0.094613   
485.000000	0.187030   
485.500000	0.154886   
486.000000	0.083136   
486.500000	0.022833   
487.000000	0.049469   
487.500000	0.165825   
488.000000	0.266613   
488.500000	0.334371   
489.000000	0.219030   
489.500000	0.165696   
490.000000	0.088075   
490.500000	0.094924   
491.000000	0.016340   
491.500000	0.026007   
492.000000	0.034515   
492.500000	0.092325   
493.000000	0.092840   
493.500000	0.133674   
494.000000	0.124068   
494.500000	0.117469   
495.000000	0.203651   
495.500000	0.328500   
496.000000	0.375939   
496.500000	0.305045   
497.000000	0.310590   
497.500000	0.418651   
498.000000	0.571795   
498.500000	0.660984   
499.000000	0.738893   
499.500000	0.843689   
500.000000	0.886439   
500.500000	0.853931   
501.000000	0.741189   
501.500000	0.653340   
502.000000	0.711522   
502.500000	0.882106   
503.000000	1.065833   
503.500000	1.174833   
504.000000	1.378553   
504.500000	1.508098   
505.000000	1.545613   
505.500000	1.534181   
506.000000	1.843651   
506.500000	2.164257   
507.000000	2.350068   
507.500000	2.372015   
508.000000	2.429840   
508.500000	2.436060   
509.000000	2.388325   
509.500000	2.439537   
510.000000	2.711515   
510.500000	2.883060   
511.000000	2.875537   
511.500000	2.787446   
512.000000	2.785628   
512.500000	2.716856   
513.000000	2.748409   
513.500000	2.713393   
514.000000	2.837431   
514.500000	2.926560   
515.000000	3.057681   
515.500000	3.201560   
516.000000	3.335227   
516.500000	3.472674   
517.000000	3.511462   
517.500000	3.481037   
518.000000	3.245250   
518.500000	3.230765   
519.000000	3.320833   
519.500000	3.567696   
520.000000	3.523280   
520.500000	3.599833   
521.000000	3.631462   
521.500000	3.758045   
522.000000	3.603409   
522.500000	3.662333   
523.000000	3.737946   
523.500000	3.990893   
524.000000	4.203992   
524.500000	4.529969   
525.000000	4.506477   
525.500000	4.113613   
526.000000	3.687727   
526.500000	3.931030   
527.000000	4.603196   
527.500000	5.186189   
528.000000	5.128734   
528.500000	4.854386   
529.000000	4.803659   
529.500000	5.363507   
530.000000	5.832545   
530.500000	6.117893   
531.000000	6.221128   
531.500000	6.462068   
532.000000	6.692045   
532.500000	6.908916   
533.000000	7.135431   
533.500000	7.414257   
534.000000	7.482969   
534.500000	7.465219   
535.000000	7.487371   
535.500000	7.832492   
536.000000	8.350628   
536.500000	9.090621   
537.000000	9.397712   
537.500000	9.479484   
538.000000	9.653795   
538.500000	10.670295  
539.000000	12.032507  
539.500000	13.025386  
540.000000	13.612257  
540.500000	14.035121  
541.000000	14.509568  
541.500000	14.776393  
542.000000	14.916022  
542.500000	14.491340  
543.000000	14.074909  
543.500000	13.871181  
544.000000	14.028128  
544.500000	13.708098  
545.000000	12.929795  
545.500000	12.176212  
546.000000	11.583083  
546.500000	10.869583  
547.000000	10.016575  
547.500000	9.403416   
548.000000	8.664257   
548.500000	8.209621   
549.000000	7.556181   
549.500000	7.003696   
550.000000	6.185742   
550.500000	5.620696   
551.000000	5.109886   
551.500000	4.782795   
552.000000	4.565303   
552.500000	4.450636   
553.000000	4.324075   
553.500000	4.012462   
554.000000	3.812515   
554.500000	3.534446   
555.000000	3.319431   
555.500000	3.215356   
556.000000	3.305727   
556.500000	3.421181   
557.000000	3.563712   
557.500000	3.684280   
558.000000	3.638098   
558.500000	3.411000   
559.000000	3.290007   
559.500000	3.355946   
560.000000	3.445848   
560.500000	3.398772   
561.000000	3.404250   
561.500000	3.438393   
562.000000	3.489151   
562.500000	3.504151   
563.000000	3.557166   
563.500000	3.519333   
564.000000	3.360424   
564.500000	3.068007   
565.000000	3.052871   
565.500000	3.303643   
566.000000	3.550416   
566.500000	3.489272   
567.000000	3.340757   
567.500000	3.246386   
568.000000	3.182931   
568.500000	3.066227   
569.000000	3.180969   
569.500000	3.566780   
570.000000	3.861969   
570.500000	3.798507   
571.000000	3.522462   
571.500000	3.306780   
572.000000	3.307916   
572.500000	3.388863   
573.000000	3.439704   
573.500000	3.403984   
574.000000	3.346507   
574.500000	3.305977   
575.000000	3.337280   
575.500000	3.466946   
576.000000	3.557840   
576.500000	3.516060   
577.000000	3.310462   
577.500000	3.148871   
578.000000	3.067310   
578.500000	3.042393   
579.000000	3.065454   
579.500000	3.251431   
580.000000	3.668530   
580.500000	3.847598   
581.000000	3.637257   
581.500000	3.251166   
582.000000	3.211939   
582.500000	3.267515   
583.000000	3.300242   
583.500000	3.277840   
584.000000	3.485060   
584.500000	3.759469   
585.000000	3.971689   
585.500000	4.039439   
586.000000	4.181340   
586.500000	4.205053   
587.000000	4.025704   
587.500000	3.761242   
588.000000	3.685757   
588.500000	3.932659   
589.000000	4.099507   
589.500000	4.083545   
590.000000	3.914219   
590.500000	4.013946   
591.000000	3.965500   
591.500000	3.892848   
592.000000	3.646363   
592.500000	3.935318   
593.000000	4.306272   
593.500000	4.607507   
594.000000	4.356318   
594.500000	4.273750   
595.000000	4.242719   
595.500000	4.422000   
596.000000	4.312833   
596.500000	4.532401   
597.000000	4.837265   
597.500000	5.207856   
598.000000	5.169734   
598.500000	5.160901   
599.000000	5.244477   
599.500000	5.516136   
600.000000	5.572037   
600.500000	5.424833   
601.000000	5.246530   
601.500000	5.186749   
602.000000	5.460068   
602.500000	5.802128   
603.000000	6.152075   
603.500000	6.242583   
604.000000	6.290946   
604.500000	6.391212   
605.000000	6.627166   
605.500000	6.904484   
606.000000	7.083825   
606.500000	7.424969   
607.000000	7.619227   
607.500000	7.555098   
608.000000	7.200871   
608.500000	7.326924   
609.000000	7.881189   
609.500000	8.347212   
610.000000	8.482613   
610.500000	8.615795   
611.000000	9.073106   
611.500000	9.533924   
612.000000	10.059280  
612.500000	10.681924  
613.000000	11.058742  
613.500000	11.089719  
614.000000	11.016530  
614.500000	11.195954  
615.000000	11.553545  
615.500000	12.123227  
616.000000	12.772250  
616.500000	13.053909  
617.000000	13.061825  
617.500000	13.091613  
618.000000	13.755696  
618.500000	14.516287  
619.000000	15.224348  
619.500000	15.557113  
620.000000	16.059840  
620.500000	16.580992  
621.000000	17.442674  
621.500000	18.153681  
622.000000	18.782196  
622.500000	18.964371  
623.000000	19.354530  
623.500000	20.043310  
624.000000	21.187537  
624.500000	21.561674  
625.000000	21.565030  
625.500000	21.855696  
626.000000	23.356992  
626.500000	25.154166  
627.000000	26.600969  
627.500000	27.439386  
628.000000	28.352545  
628.500000	29.458515  
629.000000	30.592303  
629.500000	31.731136  
630.000000	32.910045  
630.500000	34.254272  
631.000000	35.159477  
631.500000	35.915030  
632.000000	36.993689  
632.500000	38.926916  
633.000000	40.589825  
633.500000	41.923537  
634.000000	42.964878  
634.500000	44.400598  
635.000000	45.817530  
635.500000	47.907901  
636.000000	50.029348  
636.500000	52.203628  
637.000000	53.856659  
637.500000	55.683446  
638.000000	57.769984  
638.500000	59.784181  
639.000000	61.370878  
639.500000	62.873075  
640.000000	64.408416  
640.500000	66.331962  
641.000000	68.436537  
641.500000	70.862931  
642.000000	73.556628  
642.500000	77.023462  
643.000000	80.959560  
643.500000	84.580863  
644.000000	87.133318  
644.500000	88.513068  
645.000000	89.841719  
645.500000	91.712742  
646.000000	94.281257  
646.500000	96.619590  
647.000000	99.606068  
647.500000	103.070727 
648.000000	106.407219 
648.500000	109.075068 
649.000000	111.339924 
649.500000	113.929954 
650.000000	116.822181 
650.500000	119.921037 
651.000000	123.557545 
651.500000	128.458113 
652.000000	133.202250 
652.500000	136.347242 
653.000000	138.030204 
653.500000	140.797015 
654.000000	145.098128 
654.500000	150.494227 
655.000000	153.963022 
655.500000	156.614522 
656.000000	159.187553 
656.500000	163.123787 
657.000000	166.666833 
657.500000	169.908977 
658.000000	172.802712 
658.500000	176.249166 
659.000000	180.138568 
659.500000	184.093303 
660.000000	189.113878 
660.500000	194.360598 
661.000000	197.952159 
661.500000	199.893780 
662.000000	202.270227 
662.500000	206.552628 
663.000000	211.434704 
663.500000	215.209212 
664.000000	218.935166 
664.500000	221.665454 
665.000000	223.812727 
665.500000	224.386439 
666.000000	226.461378 
666.500000	230.390250 
667.000000	235.116234 
667.500000	237.968045 
668.000000	238.732666 
668.500000	240.007863 
669.000000	242.451189 
669.500000	247.620734 
670.000000	250.963886 
670.500000	253.230500 
671.000000	253.758159 
671.500000	256.456348 
672.000000	259.308954 
672.500000	262.514522 
673.000000	263.925409 
673.500000	265.571780 
674.000000	266.792113 
674.500000	269.043106 
675.000000	270.022530 
675.500000	270.000545 
676.000000	270.191424 
676.500000	272.707219 
677.000000	276.160340 
677.500000	277.883416 
678.000000	277.070818 
678.500000	277.797204 
679.000000	279.719795 
679.500000	281.467416 
680.000000	281.104803 
680.500000	281.300750 
681.000000	281.271348 
681.500000	281.129666 
682.000000	280.227848 
682.500000	280.425454 
683.000000	282.299272 
683.500000	283.261022 
684.000000	283.617446 
684.500000	281.523121 
685.000000	279.102750 
685.500000	276.751734 
686.000000	276.386856 
686.500000	276.264537 
687.000000	274.883098 
687.500000	271.653628 
688.000000	267.108401 
688.500000	263.109553 
689.000000	260.318765 
689.500000	258.822992 
690.000000	256.128045 
690.500000	252.149871 
691.000000	249.074772 
691.500000	247.822750 
692.000000	244.809659 
692.500000	239.675333 
693.000000	233.750893 
693.500000	230.326992 
694.000000	226.466022 
694.500000	221.787727 
695.000000	216.374174 
695.500000	212.865015 
696.000000	209.286810 
696.500000	204.671045 
697.000000	198.817674 
697.500000	193.800598 
698.000000	189.676045 
698.500000	185.995204 
699.000000	181.971500 
699.500000	178.222772 
700.000000	173.848659 
700.500000	169.147030 
701.000000	164.318878 
701.500000	161.056037 
702.000000	157.875287 
702.500000	153.440598 
703.000000	147.958348 
703.500000	143.258234 
704.000000	140.009106 
704.500000	136.319659 
705.000000	131.693393 
705.500000	126.745560 
706.000000	123.274575 
706.500000	120.466075 
707.000000	117.621424 
707.500000	114.119424 
708.000000	111.367121 
708.500000	109.224893 
709.000000	107.221946 
709.500000	104.283568 
710.000000	100.759651 
710.500000	97.184840  
711.000000	94.182204  
711.500000	91.222689  
712.000000	88.291212  
712.500000	85.176757  
713.000000	82.541659  
713.500000	80.853666  
714.000000	79.814083  
714.500000	77.717143  
715.000000	74.965643  
715.500000	71.764901  
716.000000	69.518946  
716.500000	67.497098  
717.000000	66.269090  
717.500000	64.611227  
718.000000	62.992393  
718.500000	61.160590  
719.000000	59.380280  
719.500000	57.290416  
720.000000	55.011787  
720.500000	53.253946  
721.000000	51.690871  
721.500000	50.231083  
722.000000	48.532674  
722.500000	47.450219  
723.000000	46.423136  
723.500000	45.648583  
724.000000	44.214378  
724.500000	42.518522  
725.000000	40.369280  
725.500000	38.930280  
726.000000	37.768530  
726.500000	36.670636  
727.000000	35.037499  
727.500000	33.823916  
728.000000	33.316196  
728.500000	32.989636  
729.000000	32.255121  
729.500000	30.901348  
730.000000	29.437053  
730.500000	28.267984  
731.000000	27.525234  
731.500000	27.002401  
732.000000	26.150727  
732.500000	25.448545  
733.000000	24.909325  
733.500000	24.578674  
734.000000	23.755560  
734.500000	23.014515  
735.000000	22.234590  
735.500000	21.501272  
736.000000	20.585287  
736.500000	20.121075  
737.000000	19.994015  
737.500000	19.808500  
738.000000	19.248878  
738.500000	18.570113  
739.000000	18.085121  
739.500000	17.670893  
740.000000	17.131545  
740.500000	16.636575  
741.000000	16.557969  
741.500000	16.426772  
742.000000	15.996030  
742.500000	15.234939  
743.000000	14.847969  
743.500000	14.856871  
744.000000	14.758204  
744.500000	14.179545  
745.000000	13.306265  
745.500000	12.454393  
746.000000	11.754704  
746.500000	11.525636  
747.000000	11.590310  
747.500000	11.784856  
748.000000	11.676909  
748.500000	11.636363  
749.000000	11.473750  
749.500000	11.005075  
750.000000	10.350628  
750.500000	10.108992  
751.000000	10.182712  
751.500000	10.137780  
752.000000	9.826386   
752.500000	9.416030   
753.000000	8.990431   
753.500000	8.714287   
754.000000	8.570075   
754.500000	8.439704   
755.000000	8.411128   
755.500000	8.546727   
756.000000	8.747280   
756.500000	8.450727   
757.000000	7.905666   
757.500000	7.382901   
758.000000	7.306992   
758.500000	7.308621   
759.000000	7.329371   
759.500000	7.110916   
760.000000	6.785348   
760.500000	6.501424   
761.000000	6.581712   
761.500000	6.748916   
762.000000	6.858492   
762.500000	6.491924   
763.000000	6.277030   
763.500000	6.200310   
764.000000	6.329537   
764.500000	6.018492   
765.000000	5.742977   
765.500000	5.814106   
766.000000	6.298318   
766.500000	6.179204   
767.000000	5.651931   
767.500000	5.195477   
768.000000	5.166075   
768.500000	5.154068   
769.000000	5.127500   
769.500000	5.117363   
770.000000	5.171803   
770.500000	5.209643   
771.000000	5.106689   
771.500000	5.093969   
772.000000	4.855159   
772.500000	4.748590   
773.000000	4.683750   
773.500000	4.676598   
774.000000	4.367363   
774.500000	4.147469   
775.000000	4.037484   
775.500000	4.129068   
776.000000	4.063689   
776.500000	4.001121   
777.000000	3.891909   
777.500000	3.856795   
778.000000	3.687848   
778.500000	3.694348   
779.000000	3.676969   
779.500000	3.791810   
780.000000	3.862598   
780.500000	4.000954   
781.000000	3.918022   
781.500000	3.714204   
782.000000	3.373848   
782.500000	3.377787   
783.000000	3.543787   
783.500000	3.751863   
784.000000	3.546121   
784.500000	3.205068   
785.000000	3.145037   
785.500000	3.430969   
786.000000	3.573212   
786.500000	3.347454   
787.000000	3.059409   
787.500000	2.964704   
788.000000	3.147856   
788.500000	3.379878   
789.000000	3.501234   
789.500000	3.355439   
790.000000	3.089234   
790.500000	2.944234   
791.000000	3.013833   
791.500000	3.060878   
792.000000	2.979651   
792.500000	2.742128   
793.000000	2.663977   
793.500000	2.775121   
794.000000	2.986484   
794.500000	2.958962   
795.000000	2.801553   
795.500000	2.733681   
796.000000	2.794181   
796.500000	2.796477   
797.000000	2.741348   
797.500000	2.726348   
798.000000	2.790621   
798.500000	2.805712   
799.000000	2.632818   
799.500000	2.408583   
800.000000	2.326893   
800.500000	2.204606   
801.000000	2.048939   
801.500000	1.990272   
802.000000	2.227242   
802.500000	2.617030   
803.000000	2.823227   
803.500000	2.748424   
804.000000	2.507159   
804.500000	2.408136   
805.000000	2.450348   
805.500000	2.634901   
806.000000	2.581689   
806.500000	2.262257   
807.000000	1.926886   
807.500000	1.744128   
808.000000	1.815416   
808.500000	1.927962   
809.000000	2.035250   
809.500000	2.013303   
810.000000	2.082696   
810.500000	2.246606   
811.000000	2.421106   
811.500000	2.431227   
812.000000	2.251280   
812.500000	2.086954   
813.000000	1.989469   
813.500000	1.942143   
814.000000	1.896992   
814.500000	1.841500   
815.000000	1.784734   
815.500000	1.780393   
816.000000	1.993106   
816.500000	2.219181   
817.000000	2.266931   
817.500000	2.127151   
818.000000	1.945015   
818.500000	1.875969   
819.000000	1.745984   
819.500000	1.750636   
820.000000	1.869075   
820.500000	2.298303   
821.000000	2.375106   
821.500000	2.325977   
822.000000	2.166977   
822.500000	2.353219   
823.000000	2.489151   
823.500000	2.521022   
824.000000	2.428886   
824.500000	2.473007   
825.000000	2.492325   
825.500000	2.425234   
826.000000	2.379651   
826.500000	2.202242   
827.000000	2.018636   
827.500000	1.809295   
828.000000	1.834250   
828.500000	1.959075   
829.000000	2.110340   
829.500000	2.107681   
830.000000	1.948810   
830.500000	1.639151   
831.000000	1.299174   
831.500000	1.220272   
832.000000	1.339803   
832.500000	1.534287   
833.000000	1.460492   
833.500000	1.225159   
834.000000	0.982560   
834.500000	0.904931   
835.000000	1.020340   
835.500000	1.135613   
836.000000	1.128386   
836.500000	1.019189   
837.000000	0.952712   
837.500000	0.969454   
838.000000	0.963856   
838.500000	0.909492   
839.000000	0.922992   
839.500000	1.019106   
840.000000	0.967477   
840.500000	0.858749   
841.000000	0.805750   
841.500000	0.915015   
842.000000	0.929931   
842.500000	0.764113   
843.000000	0.634037   
843.500000	0.712651   
844.000000	0.704643   
844.500000	0.492424   
845.000000	0.249780   
845.500000	0.285507   
846.000000	0.486545   
846.500000	0.561575   
847.000000	0.487424   
847.500000	0.425060   
848.000000	0.325674   
848.500000	0.217924   
849.000000	0.210590   
849.500000	0.278636   
850.000000	0.294469   
850.500000	0.167136   
851.000000	0.022878   
851.500000	-0.049037  
852.000000	-0.015424  
852.500000	0.101371   
853.000000	0.312250   
853.500000	0.304159   
854.000000	0.173651   
854.500000	-0.017295  
855.000000	-0.070787  
855.500000	-0.061659  
856.000000	0.047742   
856.500000	0.148371   
857.000000	0.121666   
857.500000	-0.002340  
858.000000	-0.117371  
858.500000	-0.016106  
859.000000	0.095598   
859.500000	0.217984   
860.000000	0.208416   
860.500000	0.168424   
861.000000	0.064363   
861.500000	0.025590   
862.000000	0.067515   
862.500000	0.145515   
863.000000	0.174015   
863.500000	0.105666   
864.000000	0.101356   
864.500000	0.122136   
865.000000	0.170537   
865.500000	0.103659   
866.000000	0.070674   
866.500000	0.042689   
867.000000	0.080560   
867.500000	0.119189   
868.000000	0.109901   
868.500000	0.045265   
869.000000	-0.056053  
869.500000	-0.049810  
870.000000	-0.021606  
870.500000	0.081106   
871.000000	0.159121   
871.500000	0.265537   
872.000000	0.190515   
872.500000	0.029613   
873.000000	-0.096181  
873.500000	-0.057469  
874.000000	0.031659   
874.500000	0.015053   
875.000000	-0.121121  
875.500000	-0.225545  
876.000000	-0.154083  
876.500000	-0.030166  
877.000000	-0.004909  
877.500000	-0.095840  
878.000000	-0.086924  
878.500000	-0.089689  
879.000000	-0.175159  
879.500000	-0.301280  
880.000000	-0.222659  
880.500000	-0.055068  
881.000000	0.059196   
881.500000	-0.001325  
882.000000	0.016522   
882.500000	0.038356   
883.000000	0.035606   
883.500000	-0.039295  
884.000000	-0.006659  
884.500000	0.102606   
885.000000	0.183750   
885.500000	0.118750   
886.000000	-0.002363  
886.500000	-0.052303  
887.000000	-0.053946  
887.500000	-0.067575  
888.000000	-0.102575  
888.500000	-0.124848  
889.000000	-0.033113  
889.500000	0.081499   
890.000000	0.134696   
890.500000	0.042568   
891.000000	-0.068507  
891.500000	-0.084325  
892.000000	0.028045   
892.500000	0.090674   
893.000000	0.028681   
893.500000	-0.003371  
894.000000	0.037234   
894.500000	0.078628   
895.000000	0.043810   
895.500000	-0.025757  
896.000000	-0.038106  
896.500000	-0.012174  
897.000000	-0.019575  
897.500000	-0.051393  
898.000000	-0.117280  
898.500000	0.011060   
899.000000	0.271446   
899.500000	0.408522   
900.000000	0.008977   
900.500000	-0.868000  

