PE FL                   SPECTRUM    ASCII       PEDS        1.60        
  -1
S12#12.SP
24/04/15
15:11:58.00
24/04/15
15:13:23.00
Jan

900.500000
1









LS55
405.00
5.00
5.00
SCAN
1
20
100
100
0
400
0
1
0
1
5
ON
900 405 
1 0 0
#HDR
-1
-1
#GR
NM

0.00002384185791015625
0.0
450.000000
0.500000
902
8
300.726401
-0.317075
#DATA
450.000000	-0.302000  
450.500000	0.140962   
451.000000	0.283007   
451.500000	0.215068   
452.000000	0.105575   
452.500000	0.006946   
453.000000	-0.078568  
453.500000	-0.010704  
454.000000	0.145977   
454.500000	0.328030   
455.000000	0.406674   
455.500000	0.411787   
456.000000	0.246015   
456.500000	0.046893   
457.000000	-0.110553  
457.500000	-0.082886  
458.000000	0.018863   
458.500000	0.146136   
459.000000	0.143946   
459.500000	0.037295   
460.000000	-0.043977  
460.500000	-0.047272  
461.000000	0.070780   
461.500000	0.220318   
462.000000	0.361530   
462.500000	0.329583   
463.000000	0.210590   
463.500000	0.145136   
464.000000	0.062484   
464.500000	-0.111219  
465.000000	-0.246303  
465.500000	-0.104075  
466.000000	-0.000378  
466.500000	0.072704   
467.000000	0.002901   
467.500000	0.052477   
468.000000	0.093416   
468.500000	0.214174   
469.000000	0.214439   
469.500000	0.100462   
470.000000	-0.150037  
470.500000	-0.100045  
471.000000	0.124962   
471.500000	0.298795   
472.000000	0.117545   
472.500000	0.034272   
473.000000	0.094939   
473.500000	0.318818   
474.000000	0.283227   
474.500000	0.057780   
475.000000	-0.132568  
475.500000	-0.196712  
476.000000	-0.249522  
476.500000	-0.287386  
477.000000	-0.124477  
477.500000	0.024954   
478.000000	0.060750   
478.500000	-0.089916  
479.000000	-0.141340  
479.500000	-0.109416  
480.000000	-0.092227  
480.500000	-0.022727  
481.000000	0.129340   
481.500000	0.169356   
482.000000	0.046924   
482.500000	-0.034931  
483.000000	-0.006477  
483.500000	-0.033242  
484.000000	-0.245007  
484.500000	-0.317075  
485.000000	-0.102446  
485.500000	0.173371   
486.000000	0.282848   
486.500000	0.258242   
487.000000	0.191189   
487.500000	0.145901   
488.000000	0.132121   
488.500000	0.228848   
489.000000	0.275007   
489.500000	0.206287   
490.000000	0.126310   
490.500000	0.099590   
491.000000	0.080719   
491.500000	0.078689   
492.000000	0.108189   
492.500000	0.274424   
493.000000	0.392143   
493.500000	0.413333   
494.000000	0.432651   
494.500000	0.490772   
495.000000	0.500280   
495.500000	0.431363   
496.000000	0.301674   
496.500000	0.238575   
497.000000	0.353500   
497.500000	0.535098   
498.000000	0.764189   
498.500000	0.886772   
499.000000	0.875689   
499.500000	0.849348   
500.000000	0.831749   
500.500000	0.814371   
501.000000	0.736045   
501.500000	0.778553   
502.000000	0.884022   
502.500000	1.024151   
503.000000	0.969651   
503.500000	0.905045   
504.000000	0.946606   
504.500000	1.038439   
505.000000	1.190431   
505.500000	1.320750   
506.000000	1.412500   
506.500000	1.404113   
507.000000	1.471674   
507.500000	1.710446   
508.000000	1.944106   
508.500000	2.225825   
509.000000	2.495750   
509.500000	2.767916   
510.000000	2.585795   
510.500000	2.390477   
511.000000	2.415787   
511.500000	2.838863   
512.000000	3.053227   
512.500000	2.995128   
513.000000	2.850068   
513.500000	2.992333   
514.000000	3.243234   
514.500000	3.526212   
515.000000	3.487962   
515.500000	3.326325   
516.000000	3.196499   
516.500000	3.430318   
517.000000	3.763575   
517.500000	3.865106   
518.000000	3.593318   
518.500000	3.419840   
519.000000	3.469060   
519.500000	3.636765   
520.000000	3.601053   
520.500000	3.487333   
521.000000	3.319681   
521.500000	3.341363   
522.000000	3.458106   
522.500000	3.802568   
523.000000	3.912219   
523.500000	3.804106   
524.000000	3.625522   
524.500000	3.822719   
525.000000	4.251250   
525.500000	4.567083   
526.000000	4.637151   
526.500000	4.676340   
527.000000	4.730068   
527.500000	4.664704   
528.000000	4.500636   
528.500000	4.511939   
529.000000	4.823242   
529.500000	5.277416   
530.000000	5.560272   
530.500000	5.757803   
531.000000	5.988166   
531.500000	6.259143   
532.000000	6.287128   
532.500000	6.249522   
533.000000	6.563863   
533.500000	7.195143   
534.000000	7.868181   
534.500000	8.040030   
535.000000	8.108265   
535.500000	8.091749   
536.000000	8.482560   
536.500000	8.917393   
537.000000	9.616219   
537.500000	10.184159  
538.000000	10.847090  
538.500000	11.313681  
539.000000	11.837409  
539.500000	12.494477  
540.000000	13.108083  
540.500000	13.644030  
541.000000	14.127780  
541.500000	14.630484  
542.000000	14.764507  
542.500000	14.477007  
543.000000	14.031227  
543.500000	13.718348  
544.000000	13.094530  
544.500000	12.285159  
545.000000	11.661318  
545.500000	11.519750  
546.000000	11.527143  
546.500000	11.388030  
547.000000	10.742924  
547.500000	9.841007   
548.000000	9.050795   
548.500000	8.447742   
549.000000	7.838515   
549.500000	7.094007   
550.000000	6.619378   
550.500000	6.163924   
551.000000	5.474909   
551.500000	4.540287   
552.000000	4.061893   
552.500000	4.054090   
553.000000	4.011121   
553.500000	3.766439   
554.000000	3.656719   
554.500000	3.815696   
555.000000	3.900431   
555.500000	3.696181   
556.000000	3.407575   
556.500000	3.424856   
557.000000	3.603462   
557.500000	3.654765   
558.000000	3.564719   
558.500000	3.412227   
559.000000	3.290772   
559.500000	3.117674   
560.000000	3.092575   
560.500000	3.316939   
561.000000	3.596924   
561.500000	3.565939   
562.000000	3.303946   
562.500000	3.087219   
563.000000	3.062598   
563.500000	3.169075   
564.000000	3.298810   
564.500000	3.430462   
565.000000	3.453295   
565.500000	3.506053   
566.000000	3.585909   
566.500000	3.685098   
567.000000	3.610393   
567.500000	3.411742   
568.000000	3.179787   
568.500000	3.042810   
569.000000	3.070848   
569.500000	3.294106   
570.000000	3.540931   
570.500000	3.720666   
571.000000	3.767583   
571.500000	3.671340   
572.000000	3.389189   
572.500000	3.376310   
573.000000	3.538424   
573.500000	3.813204   
574.000000	3.762053   
574.500000	3.760628   
575.000000	3.741909   
575.500000	3.827575   
576.000000	3.801378   
576.500000	3.679151   
577.000000	3.550901   
577.500000	3.585901   
578.000000	3.769393   
578.500000	3.897893   
579.000000	3.815242   
579.500000	3.668643   
580.000000	3.644098   
580.500000	3.597810   
581.000000	3.438060   
581.500000	3.351348   
582.000000	3.499553   
582.500000	3.735174   
583.000000	3.934856   
583.500000	3.887393   
584.000000	3.779984   
584.500000	3.661416   
585.000000	3.805000   
585.500000	3.896727   
586.000000	3.794598   
586.500000	3.511295   
587.000000	3.472053   
587.500000	3.708000   
588.000000	3.964295   
588.500000	4.107143   
589.000000	4.191515   
589.500000	4.274590   
590.000000	4.292909   
590.500000	4.281704   
591.000000	4.324856   
591.500000	4.338886   
592.000000	4.328848   
592.500000	4.391984   
593.000000	4.542022   
593.500000	4.665931   
594.000000	4.501500   
594.500000	4.228628   
595.000000	4.144636   
595.500000	4.339659   
596.000000	4.512666   
596.500000	4.576719   
597.000000	4.734734   
597.500000	4.877166   
598.000000	5.171613   
598.500000	5.374954   
599.000000	5.575666   
599.500000	5.633856   
600.000000	5.776143   
600.500000	5.871446   
601.000000	5.954590   
601.500000	6.017477   
602.000000	6.343613   
602.500000	6.669507   
603.000000	6.921886   
603.500000	6.946765   
604.000000	7.155613   
604.500000	7.093325   
605.000000	6.833310   
605.500000	6.498280   
606.000000	6.732356   
606.500000	7.171257   
607.000000	7.534999   
607.500000	7.603227   
608.000000	7.668378   
608.500000	7.924068   
609.000000	8.278128   
609.500000	8.642136   
610.000000	8.857537   
610.500000	9.159651   
611.000000	9.421000   
611.500000	9.568166   
612.000000	9.327196   
612.500000	9.480234   
613.000000	10.150303  
613.500000	10.949553  
614.000000	11.287522  
614.500000	11.061462  
615.000000	10.911128  
615.500000	11.122037  
616.000000	12.087621  
616.500000	12.923787  
617.000000	13.167878  
617.500000	12.797674  
618.000000	13.215325  
618.500000	14.152022  
619.000000	15.106583  
619.500000	15.616272  
620.000000	16.372606  
620.500000	17.089386  
621.000000	17.530560  
621.500000	17.523689  
622.000000	17.957287  
622.500000	18.750507  
623.000000	19.956946  
623.500000	21.041719  
624.000000	21.669242  
624.500000	21.948787  
625.000000	22.489439  
625.500000	23.600666  
626.000000	24.755356  
626.500000	25.978545  
627.000000	26.932371  
627.500000	27.988424  
628.000000	28.616484  
628.500000	29.423045  
629.000000	30.015583  
629.500000	30.754727  
630.000000	31.757166  
630.500000	33.440545  
631.000000	35.228568  
631.500000	36.841227  
632.000000	38.018727  
632.500000	39.221992  
633.000000	40.493765  
633.500000	42.157757  
634.000000	43.863659  
634.500000	46.048810  
635.000000	48.139545  
635.500000	50.111553  
636.000000	51.641856  
636.500000	53.302371  
637.000000	54.957689  
637.500000	56.623159  
638.000000	58.437749  
638.500000	60.509696  
639.000000	62.071045  
639.500000	63.361560  
640.000000	65.595522  
640.500000	68.699166  
641.000000	71.687643  
641.500000	73.851499  
642.000000	76.465590  
642.500000	79.234901  
643.000000	82.229287  
643.500000	84.493386  
644.000000	86.651515  
644.500000	88.609537  
645.000000	90.610924  
645.500000	92.277818  
646.000000	94.525530  
646.500000	97.604000  
647.000000	101.833962 
647.500000	106.037280 
648.000000	109.706507 
648.500000	112.213825 
649.000000	114.948454 
649.500000	118.214681 
650.000000	121.877666 
650.500000	125.607325 
651.000000	128.851795 
651.500000	131.973143 
652.000000	134.913984 
652.500000	137.755871 
653.000000	140.578606 
653.500000	144.092590 
654.000000	148.718575 
654.500000	153.623439 
655.000000	157.289401 
655.500000	159.781606 
656.000000	163.198530 
656.500000	167.985257 
657.000000	172.743727 
657.500000	176.251515 
658.000000	179.414984 
658.500000	182.434984 
659.000000	185.375393 
659.500000	188.226636 
660.000000	191.961098 
660.500000	196.291204 
661.000000	200.005060 
661.500000	203.282598 
662.000000	206.702939 
662.500000	210.629863 
663.000000	215.064507 
663.500000	219.721090 
664.000000	223.612310 
664.500000	225.361083 
665.000000	227.413075 
665.500000	230.818371 
666.000000	234.992219 
666.500000	237.967969 
667.000000	240.962984 
667.500000	245.569340 
668.000000	248.757083 
668.500000	251.199893 
669.000000	252.385462 
669.500000	256.003083 
670.000000	259.226643 
670.500000	263.208340 
671.000000	264.726583 
671.500000	266.554060 
672.000000	268.613424 
672.500000	272.571250 
673.000000	275.461083 
673.500000	276.941871 
674.000000	277.088734 
674.500000	279.708469 
675.000000	282.998303 
675.500000	286.519643 
676.000000	286.926204 
676.500000	286.940750 
677.000000	286.752606 
677.500000	288.677189 
678.000000	289.941992 
678.500000	292.365318 
679.000000	294.526681 
679.500000	296.333545 
680.000000	295.873712 
680.500000	296.901590 
681.000000	298.661280 
681.500000	300.726401 
682.000000	299.361636 
682.500000	297.932189 
683.000000	296.211128 
683.500000	295.250484 
684.000000	293.713075 
684.500000	293.772522 
685.000000	294.245734 
685.500000	293.746643 
686.000000	291.565333 
686.500000	288.718712 
687.000000	286.783348 
687.500000	286.122310 
688.000000	285.178962 
688.500000	282.807803 
689.000000	280.011727 
689.500000	277.419893 
690.000000	273.184643 
690.500000	268.207772 
691.000000	264.267068 
691.500000	262.752545 
692.000000	260.648545 
692.500000	256.123545 
693.000000	250.056621 
693.500000	244.340431 
694.000000	239.609795 
694.500000	236.380939 
695.000000	233.018984 
695.500000	227.941924 
696.000000	221.298378 
696.500000	216.932931 
697.000000	213.366840 
697.500000	210.020037 
698.000000	203.647401 
698.500000	198.221227 
699.000000	193.081234 
699.500000	188.924772 
700.000000	183.145166 
700.500000	178.627492 
701.000000	173.951196 
701.500000	169.397416 
702.000000	163.513045 
702.500000	158.477742 
703.000000	154.381598 
703.500000	151.844068 
704.000000	148.031507 
704.500000	143.514075 
705.000000	138.962651 
705.500000	136.074265 
706.000000	133.371712 
706.500000	130.325318 
707.000000	126.328727 
707.500000	122.866416 
708.000000	119.218393 
708.500000	115.201840 
709.000000	111.702280 
709.500000	108.881681 
710.000000	105.975272 
710.500000	102.569068 
711.000000	99.315022  
711.500000	96.430484  
712.000000	94.107901  
712.500000	91.371719  
713.000000	88.706712  
713.500000	86.157310  
714.000000	83.712083  
714.500000	81.293030  
715.000000	78.882492  
715.500000	76.428439  
716.000000	74.529749  
716.500000	71.781924  
717.000000	68.318727  
717.500000	64.898371  
718.000000	63.229939  
718.500000	62.664893  
719.000000	61.891954  
719.500000	60.081924  
720.000000	57.929636  
720.500000	55.602462  
721.000000	53.189371  
721.500000	51.444181  
722.000000	50.207537  
722.500000	49.265856  
723.000000	48.300750  
723.500000	47.243871  
724.000000	45.807795  
724.500000	44.426628  
725.000000	42.865356  
725.500000	41.849969  
726.000000	40.490681  
726.500000	39.401810  
727.000000	37.765537  
727.500000	36.278560  
728.000000	34.786295  
728.500000	34.321439  
729.000000	34.173159  
729.500000	33.702507  
730.000000	32.444446  
730.500000	30.703833  
731.000000	29.232772  
731.500000	28.471583  
732.000000	28.347007  
732.500000	28.174219  
733.000000	27.546431  
733.500000	26.425969  
734.000000	25.291000  
734.500000	24.297272  
735.000000	23.581924  
735.500000	22.924840  
736.000000	22.330106  
736.500000	21.957219  
737.000000	21.420545  
737.500000	20.872909  
738.000000	20.122878  
738.500000	19.581386  
739.000000	18.889378  
739.500000	18.274098  
740.000000	17.598659  
740.500000	17.060628  
741.000000	16.560121  
741.500000	16.254840  
742.000000	16.193416  
742.500000	16.086265  
743.000000	15.748242  
743.500000	15.215969  
744.000000	14.719174  
744.500000	14.246651  
745.000000	13.813303  
745.500000	13.502272  
746.000000	13.387969  
746.500000	13.074765  
747.000000	12.803916  
747.500000	12.705333  
748.000000	12.885780  
748.500000	12.691939  
749.000000	12.307356  
749.500000	11.797977  
750.000000	11.260030  
750.500000	10.763022  
751.000000	10.457522  
751.500000	10.481583  
752.000000	10.305666  
752.500000	10.125234  
753.000000	9.690022   
753.500000	9.253477   
754.000000	8.723871   
754.500000	8.748643   
755.000000	8.911340   
755.500000	8.779765   
756.000000	8.321606   
756.500000	8.255901   
757.000000	8.463386   
757.500000	8.537674   
758.000000	8.204742   
758.500000	7.835015   
759.000000	7.485977   
759.500000	7.204212   
760.000000	7.160250   
760.500000	7.549977   
761.000000	7.843401   
761.500000	7.657924   
762.000000	7.023113   
762.500000	6.738568   
763.000000	6.822234   
763.500000	7.137363   
764.000000	6.883515   
764.500000	6.623424   
765.000000	6.387893   
765.500000	6.592477   
766.000000	6.624901   
766.500000	6.610825   
767.000000	6.296840   
767.500000	5.856598   
768.000000	5.330780   
768.500000	4.840333   
769.000000	4.688189   
769.500000	4.650871   
770.000000	4.913075   
770.500000	5.012166   
771.000000	5.026886   
771.500000	4.993378   
772.000000	5.043075   
772.500000	4.857757   
773.000000	4.485393   
773.500000	4.239727   
774.000000	4.189719   
774.500000	4.324000   
775.000000	4.336924   
775.500000	4.275181   
776.000000	4.101227   
776.500000	3.951075   
777.000000	3.869719   
777.500000	3.918575   
778.000000	4.004098   
778.500000	4.018007   
779.000000	3.900848   
779.500000	3.648871   
780.000000	3.524212   
780.500000	3.361015   
781.000000	3.238931   
781.500000	3.190439   
782.000000	3.377265   
782.500000	3.440916   
783.000000	3.390810   
783.500000	3.362704   
784.000000	3.380007   
784.500000	3.321060   
785.000000	3.218825   
785.500000	3.266719   
786.000000	3.349143   
786.500000	3.296083   
787.000000	3.133590   
787.500000	3.014439   
788.000000	3.026439   
788.500000	3.121174   
789.000000	3.164530   
789.500000	3.135765   
790.000000	3.058386   
790.500000	3.095287   
791.000000	3.123628   
791.500000	3.051712   
792.000000	2.835037   
792.500000	2.764545   
793.000000	2.865863   
793.500000	3.088022   
794.000000	3.120219   
794.500000	3.029143   
795.000000	2.934772   
795.500000	3.030189   
796.000000	3.044666   
796.500000	2.858522   
797.000000	2.617507   
797.500000	2.607893   
798.000000	2.727257   
798.500000	2.779416   
799.000000	2.728537   
799.500000	2.684856   
800.000000	2.691507   
800.500000	2.618318   
801.000000	2.432106   
801.500000	2.236159   
802.000000	2.259083   
802.500000	2.448037   
803.000000	2.566621   
803.500000	2.387530   
804.000000	2.233689   
804.500000	2.226234   
805.000000	2.291924   
805.500000	2.221916   
806.000000	2.235340   
806.500000	2.167583   
807.000000	2.038795   
807.500000	1.886340   
808.000000	1.958128   
808.500000	2.149333   
809.000000	2.134795   
809.500000	1.958045   
810.000000	1.816318   
810.500000	1.815803   
811.000000	1.748689   
811.500000	1.842871   
812.000000	1.944159   
812.500000	2.100696   
813.000000	2.084325   
813.500000	2.059310   
814.000000	2.136272   
814.500000	2.150886   
815.000000	2.056696   
815.500000	2.002000   
816.000000	2.113833   
816.500000	2.231090   
817.000000	2.267219   
817.500000	2.167386   
818.000000	1.964992   
818.500000	1.742522   
819.000000	1.730401   
819.500000	2.024893   
820.000000	2.394083   
820.500000	2.513901   
821.000000	2.521386   
821.500000	2.513901   
822.000000	2.594651   
822.500000	2.593954   
823.000000	2.672651   
823.500000	2.763893   
824.000000	2.770560   
824.500000	2.550901   
825.000000	2.291681   
825.500000	2.279909   
826.000000	2.387977   
826.500000	2.404492   
827.000000	2.276431   
827.500000	2.197924   
828.000000	2.076992   
828.500000	1.811863   
829.000000	1.413242   
829.500000	1.285045   
830.000000	1.415469   
830.500000	1.630871   
831.000000	1.617696   
831.500000	1.523037   
832.000000	1.448727   
832.500000	1.331507   
833.000000	1.109053   
833.500000	0.886674   
834.000000	0.849924   
834.500000	0.924984   
835.000000	1.042068   
835.500000	1.113750   
836.000000	1.141780   
836.500000	1.098727   
837.000000	1.041272   
837.500000	1.084015   
838.000000	1.006446   
838.500000	0.853143   
839.000000	0.703166   
839.500000	0.825227   
840.000000	0.944507   
840.500000	0.881568   
841.000000	0.668651   
841.500000	0.519121   
842.000000	0.547795   
842.500000	0.587037   
843.000000	0.611454   
843.500000	0.453568   
844.000000	0.441909   
844.500000	0.448696   
845.000000	0.498151   
845.500000	0.358750   
846.000000	0.311977   
846.500000	0.313121   
847.000000	0.336651   
847.500000	0.284477   
848.000000	0.325424   
848.500000	0.378083   
849.000000	0.334121   
849.500000	0.292196   
850.000000	0.363893   
850.500000	0.474166   
851.000000	0.396499   
851.500000	0.090310   
852.000000	-0.211287  
852.500000	-0.269007  
853.000000	-0.110333  
853.500000	0.034848   
854.000000	0.135681   
854.500000	0.134977   
855.000000	0.136015   
855.500000	0.004818   
856.000000	0.021249   
856.500000	0.090060   
857.000000	0.264340   
857.500000	0.210424   
858.000000	0.132166   
858.500000	-0.021560  
859.000000	-0.028446  
859.500000	0.028446   
860.000000	0.159007   
860.500000	0.202992   
861.000000	0.130393   
861.500000	0.080818   
862.000000	0.066856   
862.500000	0.098742   
863.000000	0.043886   
863.500000	-0.032287  
864.000000	-0.156909  
864.500000	-0.246075  
865.000000	-0.209750  
865.500000	-0.026984  
866.000000	0.175977   
866.500000	0.244174   
867.000000	0.156780   
867.500000	0.006772   
868.000000	-0.121545  
868.500000	-0.220560  
869.000000	-0.216553  
869.500000	-0.112340  
870.000000	0.022909   
870.500000	0.072424   
871.000000	0.023727   
871.500000	-0.006265  
872.000000	0.037257   
872.500000	0.063689   
873.000000	0.143795   
873.500000	0.247439   
874.000000	0.235568   
874.500000	0.120795   
875.000000	0.037325   
875.500000	0.060659   
876.000000	0.076234   
876.500000	0.026212   
877.000000	-0.057196  
877.500000	-0.073530  
878.000000	-0.095681  
878.500000	-0.036780  
879.000000	0.029113   
879.500000	0.026333   
880.000000	0.038515   
880.500000	0.041325   
881.000000	0.045265   
881.500000	-0.045166  
882.000000	-0.048734  
882.500000	-0.073303  
883.000000	-0.065007  
883.500000	-0.137893  
884.000000	-0.070719  
884.500000	-0.058727  
885.000000	-0.102325  
885.500000	-0.231515  
886.000000	-0.235500  
886.500000	-0.150333  
887.000000	-0.003098  
887.500000	0.059757   
888.000000	0.090840   
888.500000	0.079484   
889.000000	0.077037   
889.500000	0.038371   
890.000000	-0.021924  
890.500000	-0.142825  
891.000000	-0.227901  
891.500000	-0.183189  
892.000000	-0.063560  
892.500000	0.032992   
893.000000	0.019977   
893.500000	0.009704   
894.000000	-0.046356  
894.500000	-0.092409  
895.000000	-0.138431  
895.500000	-0.091393  
896.000000	-0.063492  
896.500000	-0.060659  
897.000000	-0.037257  
897.500000	0.005689   
898.000000	0.016560   
898.500000	-0.045053  
899.000000	-0.128083  
899.500000	-0.138848  
900.000000	-0.020666  
900.500000	0.198000   

