PE FL                   SPECTRUM    ASCII       PEDS        1.60        
  -1
S12#21.SP
24/04/15
15:24:48.00
24/04/15
15:26:12.00
Jan

900.500000
1









LS55
405.00
5.00
5.00
SCAN
1
20
100
100
0
400
0
1
0
1
5
ON
900 405 
1 0 0
#HDR
-1
-1
#GR
NM

0.00002384185791015625
0.0
450.000000
0.500000
902
8
266.475878
-0.610999
#DATA
450.000000	-0.610999  
450.500000	-0.472962  
451.000000	-0.299378  
451.500000	-0.089159  
452.000000	-0.028537  
452.500000	-0.070378  
453.000000	-0.166212  
453.500000	-0.053530  
454.000000	0.062454   
454.500000	0.049696   
455.000000	-0.054749  
455.500000	-0.075053  
456.000000	-0.001212  
456.500000	0.084939   
457.000000	0.044469   
457.500000	-0.060810  
458.000000	-0.155136  
458.500000	0.003712   
459.000000	0.256696   
459.500000	0.451424   
460.000000	0.276000   
460.500000	0.169151   
461.000000	0.128962   
461.500000	0.204250   
462.000000	0.091234   
462.500000	0.059060   
463.000000	0.040053   
463.500000	0.097151   
464.000000	-0.028439  
464.500000	-0.023962  
465.000000	0.003643   
465.500000	0.066356   
466.000000	0.061984   
466.500000	0.110121   
467.000000	0.051901   
467.500000	-0.105742  
468.000000	-0.201462  
468.500000	-0.226265  
469.000000	-0.176787  
469.500000	-0.296325  
470.000000	-0.274810  
470.500000	-0.078295  
471.000000	0.230378   
471.500000	0.349931   
472.000000	0.339795   
472.500000	0.176840   
473.000000	-0.010909  
473.500000	-0.187598  
474.000000	-0.319825  
474.500000	-0.145378  
475.000000	0.156916   
475.500000	0.339075   
476.000000	0.163772   
476.500000	-0.076553  
477.000000	-0.132424  
477.500000	0.039712   
478.000000	0.094795   
478.500000	0.114075   
479.000000	0.121098   
479.500000	0.120325   
480.000000	0.042068   
480.500000	-0.011098  
481.000000	0.013181   
481.500000	0.075212   
482.000000	0.196386   
482.500000	0.151318   
483.000000	0.105787   
483.500000	0.022856   
484.000000	0.138803   
484.500000	0.240893   
485.000000	0.283727   
485.500000	0.208810   
486.000000	0.096007   
486.500000	0.103462   
487.000000	0.156075   
487.500000	0.241075   
488.000000	0.051325   
488.500000	-0.148378  
489.000000	-0.293621  
489.500000	-0.236287  
490.000000	-0.073750  
490.500000	0.059166   
491.000000	0.143787   
491.500000	0.178833   
492.000000	0.177613   
492.500000	0.209363   
493.000000	0.180537   
493.500000	0.085204   
494.000000	-0.036848  
494.500000	-0.069204  
495.000000	-0.009560  
495.500000	0.174606   
496.000000	0.264500   
496.500000	0.434325   
497.000000	0.602795   
497.500000	0.668462   
498.000000	0.504386   
498.500000	0.467878   
499.000000	0.514469   
499.500000	0.711257   
500.000000	0.724189   
500.500000	0.824939   
501.000000	0.927636   
501.500000	1.095863   
502.000000	1.139863   
502.500000	1.199416   
503.000000	1.191575   
503.500000	1.113750   
504.000000	1.122068   
504.500000	1.174962   
505.000000	1.387628   
505.500000	1.591492   
506.000000	1.770431   
506.500000	1.717598   
507.000000	1.720098   
507.500000	1.831583   
508.000000	2.138492   
508.500000	2.329106   
509.000000	2.389522   
509.500000	2.354090   
510.000000	2.392424   
510.500000	2.337371   
511.000000	2.324507   
511.500000	2.376022   
512.000000	2.626424   
512.500000	2.898772   
513.000000	3.033992   
513.500000	2.932250   
514.000000	2.888522   
514.500000	2.998969   
515.000000	3.141704   
515.500000	3.162356   
516.000000	3.092984   
516.500000	3.088840   
517.000000	3.268681   
517.500000	3.487810   
518.000000	3.697992   
518.500000	3.716106   
519.000000	3.639863   
519.500000	3.565098   
520.000000	3.632030   
520.500000	3.684643   
521.000000	3.632484   
521.500000	3.548325   
522.000000	3.542969   
522.500000	3.635265   
523.000000	3.563045   
523.500000	3.465795   
524.000000	3.533068   
524.500000	3.796522   
525.000000	4.089575   
525.500000	4.168174   
526.000000	4.392469   
526.500000	4.459537   
527.000000	4.473856   
527.500000	4.372780   
528.000000	4.588212   
528.500000	4.907886   
529.000000	5.181053   
529.500000	5.287507   
530.000000	5.504583   
530.500000	5.696143   
531.000000	5.884916   
531.500000	6.141030   
532.000000	6.610053   
532.500000	6.948136   
533.000000	7.148250   
533.500000	7.068212   
534.000000	7.149280   
534.500000	7.366590   
535.000000	7.852818   
535.500000	8.395681   
536.000000	9.101401   
536.500000	9.486795   
537.000000	9.795810   
537.500000	9.976522   
538.000000	10.589628  
538.500000	11.308818  
539.000000	11.949992  
539.500000	12.242492  
540.000000	12.790750  
540.500000	13.438613  
541.000000	14.012454  
541.500000	14.213833  
542.000000	14.182840  
542.500000	14.181386  
543.000000	14.062696  
543.500000	13.641651  
544.000000	13.177280  
544.500000	12.718719  
545.000000	12.093568  
545.500000	11.291143  
546.000000	10.796712  
546.500000	10.736469  
547.000000	10.644659  
547.500000	9.922545   
548.000000	8.996939   
548.500000	8.103962   
549.000000	7.353818   
549.500000	6.689500   
550.000000	6.179272   
550.500000	5.707621   
551.000000	5.314386   
551.500000	5.078083   
552.000000	5.032446   
552.500000	4.845848   
553.000000	4.405590   
553.500000	3.972363   
554.000000	3.793068   
554.500000	3.754022   
555.000000	3.679363   
555.500000	3.662545   
556.000000	3.668719   
556.500000	3.511181   
557.000000	3.175984   
557.500000	2.987560   
558.000000	3.137371   
558.500000	3.400250   
559.000000	3.512712   
559.500000	3.515553   
560.000000	3.414151   
560.500000	3.306704   
561.000000	3.224848   
561.500000	3.391250   
562.000000	3.600181   
562.500000	3.656712   
563.000000	3.565265   
563.500000	3.488863   
564.000000	3.473598   
564.500000	3.373825   
565.000000	3.231416   
565.500000	3.118878   
566.000000	3.086787   
566.500000	2.973901   
567.000000	2.915090   
567.500000	3.095795   
568.000000	3.288553   
568.500000	3.323310   
569.000000	3.162234   
569.500000	3.033030   
570.000000	3.164553   
570.500000	3.384651   
571.000000	3.554454   
571.500000	3.539113   
572.000000	3.612666   
572.500000	3.578249   
573.000000	3.506689   
573.500000	3.322598   
574.000000	3.346628   
574.500000	3.482666   
575.000000	3.527878   
575.500000	3.365431   
576.000000	3.149507   
576.500000	3.112643   
577.000000	3.328848   
577.500000	3.658772   
578.000000	3.620477   
578.500000	3.386931   
579.000000	3.281643   
579.500000	3.514250   
580.000000	3.667484   
580.500000	3.491803   
581.000000	3.135674   
581.500000	3.038537   
582.000000	3.266666   
582.500000	3.422598   
583.000000	3.389522   
583.500000	3.241689   
584.000000	3.546507   
584.500000	3.792174   
585.000000	3.917560   
585.500000	3.602219   
586.000000	3.429045   
586.500000	3.415848   
587.000000	3.777007   
587.500000	3.899500   
588.000000	3.873530   
588.500000	3.686530   
589.000000	3.720409   
589.500000	3.808166   
590.000000	4.040833   
590.500000	4.222416   
591.000000	4.319598   
591.500000	4.118401   
592.000000	4.044613   
592.500000	4.026424   
593.000000	4.078696   
593.500000	4.130901   
594.000000	4.405893   
594.500000	4.483992   
595.000000	4.325022   
595.500000	4.247659   
596.000000	4.414909   
596.500000	4.554492   
597.000000	4.543568   
597.500000	4.637416   
598.000000	4.868560   
598.500000	5.138348   
599.000000	5.126719   
599.500000	4.987196   
600.000000	4.948977   
600.500000	5.089000   
601.000000	5.330818   
601.500000	5.515984   
602.000000	5.742272   
602.500000	6.035916   
603.000000	6.355962   
603.500000	6.466416   
604.000000	6.345492   
604.500000	6.006871   
605.000000	5.940431   
605.500000	6.406909   
606.000000	7.233393   
606.500000	7.575151   
607.000000	7.471878   
607.500000	7.204318   
608.000000	7.426393   
608.500000	7.895007   
609.000000	8.200522   
609.500000	8.131818   
610.000000	7.923280   
610.500000	8.155037   
611.000000	8.598469   
611.500000	9.230560   
612.000000	9.637386   
612.500000	10.182280  
613.000000	10.476174  
613.500000	10.642356  
614.000000	10.289083  
614.500000	10.019954  
615.000000	10.060606  
615.500000	10.671893  
616.000000	11.606227  
616.500000	12.414598  
617.000000	12.768977  
617.500000	13.020113  
618.000000	13.652189  
618.500000	14.306863  
619.000000	14.789727  
619.500000	15.217507  
620.000000	15.902030  
620.500000	16.696310  
621.000000	17.416750  
621.500000	18.319946  
622.000000	19.212090  
622.500000	19.700962  
623.000000	19.553962  
623.500000	19.533863  
624.000000	19.872659  
624.500000	20.691015  
625.000000	21.641553  
625.500000	22.557916  
626.000000	23.329022  
626.500000	24.339151  
627.000000	25.715931  
627.500000	27.023772  
628.000000	27.992757  
628.500000	28.680878  
629.000000	29.673189  
629.500000	30.442045  
630.000000	31.137643  
630.500000	31.874250  
631.000000	33.051083  
631.500000	34.296545  
632.000000	35.891659  
632.500000	37.798037  
633.000000	39.731924  
633.500000	41.092136  
634.000000	41.872424  
634.500000	42.643689  
635.000000	44.041818  
635.500000	46.103212  
636.000000	48.133189  
636.500000	50.016507  
637.000000	51.874530  
637.500000	54.122674  
638.000000	56.099333  
638.500000	57.988636  
639.000000	59.717272  
639.500000	61.968348  
640.000000	64.225340  
640.500000	66.227742  
641.000000	68.182272  
641.500000	70.111090  
642.000000	72.704946  
642.500000	74.979507  
643.000000	77.386348  
643.500000	79.837166  
644.000000	82.540833  
644.500000	85.297159  
645.000000	88.002113  
645.500000	91.321712  
646.000000	94.237659  
646.500000	96.530628  
647.000000	97.839287  
647.500000	99.814257  
648.000000	102.457636 
648.500000	105.454750 
649.000000	107.875583 
649.500000	110.094181 
650.000000	112.846098 
650.500000	116.350681 
651.000000	120.235651 
651.500000	124.122477 
652.000000	127.368446 
652.500000	130.453484 
653.000000	133.329409 
653.500000	136.331492 
654.000000	139.289500 
654.500000	142.825765 
655.000000	146.959537 
655.500000	150.961681 
656.000000	153.317856 
656.500000	156.422416 
657.000000	160.848227 
657.500000	166.166310 
658.000000	170.055636 
658.500000	172.396742 
659.000000	174.675931 
659.500000	177.082689 
660.000000	179.845272 
660.500000	182.544765 
661.000000	186.108568 
661.500000	189.116765 
662.000000	192.785280 
662.500000	195.783128 
663.000000	199.702765 
663.500000	202.989439 
664.000000	207.625863 
664.500000	212.240416 
665.000000	216.919742 
665.500000	219.461143 
666.000000	222.206575 
666.500000	224.229583 
667.000000	226.005189 
667.500000	226.365893 
668.000000	226.496204 
668.500000	227.859696 
669.000000	230.808227 
669.500000	235.540606 
670.000000	239.278643 
670.500000	242.143174 
671.000000	243.408075 
671.500000	245.853628 
672.000000	246.212803 
672.500000	247.463272 
673.000000	248.718772 
673.500000	252.319575 
674.000000	253.532803 
674.500000	254.385886 
675.000000	255.690189 
675.500000	258.770090 
676.000000	259.837818 
676.500000	258.983969 
677.000000	259.038287 
677.500000	262.184666 
678.000000	265.345537 
678.500000	265.384303 
679.000000	264.379484 
679.500000	264.731977 
680.000000	265.931136 
680.500000	265.648553 
681.000000	264.693325 
681.500000	265.350424 
682.000000	266.475878 
682.500000	266.029636 
683.000000	264.741416 
683.500000	263.522613 
684.000000	262.476348 
684.500000	259.972318 
685.000000	258.084757 
685.500000	256.487704 
686.000000	255.406757 
686.500000	251.850515 
687.000000	249.016583 
687.500000	245.726469 
688.000000	243.513484 
688.500000	240.381143 
689.000000	237.987325 
689.500000	235.923772 
690.000000	233.774757 
690.500000	230.286227 
691.000000	226.151530 
691.500000	222.942340 
692.000000	221.344825 
692.500000	218.724083 
693.000000	213.972674 
693.500000	208.586295 
694.000000	204.691333 
694.500000	200.233977 
695.000000	195.883628 
695.500000	191.195651 
696.000000	187.445181 
696.500000	183.775583 
697.000000	180.926712 
697.500000	177.138068 
698.000000	171.977871 
698.500000	164.665666 
699.000000	158.492666 
699.500000	154.203825 
700.000000	151.999530 
700.500000	149.744196 
701.000000	146.964174 
701.500000	142.573378 
702.000000	138.057500 
702.500000	133.202765 
703.000000	127.969113 
703.500000	123.663931 
704.000000	120.860795 
704.500000	119.197681 
705.000000	116.695007 
705.500000	113.402901 
706.000000	109.774128 
706.500000	107.534992 
707.000000	105.228507 
707.500000	102.799416 
708.000000	99.291393  
708.500000	95.354727  
709.000000	91.317818  
709.500000	88.248030  
710.000000	87.427780  
710.500000	86.696469  
711.000000	84.455159  
711.500000	79.968333  
712.000000	76.675977  
712.500000	74.359553  
713.000000	72.775719  
713.500000	70.835037  
714.000000	69.895500  
714.500000	68.729545  
715.000000	66.662810  
715.500000	63.603689  
716.000000	61.361916  
716.500000	59.549651  
717.000000	58.145227  
717.500000	56.283492  
718.000000	54.790371  
718.500000	53.176522  
719.000000	51.807393  
719.500000	50.064234  
720.000000	47.961886  
720.500000	45.965969  
721.000000	44.566371  
721.500000	43.594325  
722.000000	42.517045  
722.500000	41.621772  
723.000000	40.585166  
723.500000	39.396651  
724.000000	37.578742  
724.500000	36.081401  
725.000000	35.102325  
725.500000	34.596628  
726.000000	33.841833  
726.500000	32.912075  
727.000000	31.741856  
727.500000	30.540969  
728.000000	29.569931  
728.500000	29.075696  
729.000000	28.738863  
729.500000	28.096265  
730.000000	26.790628  
730.500000	25.546636  
731.000000	24.603674  
731.500000	24.156878  
732.000000	23.574674  
732.500000	23.237901  
733.000000	22.465083  
733.500000	21.514727  
734.000000	20.221795  
734.500000	19.582575  
735.000000	19.435325  
735.500000	19.476560  
736.000000	19.175522  
736.500000	18.620196  
737.000000	17.834280  
737.500000	16.797106  
738.000000	16.223287  
738.500000	15.977962  
739.000000	15.823606  
739.500000	15.441234  
740.000000	14.894363  
740.500000	14.403340  
741.000000	14.216696  
741.500000	14.309356  
742.000000	14.211946  
742.500000	13.670287  
743.000000	12.848454  
743.500000	12.240045  
744.000000	11.986106  
744.500000	11.721106  
745.000000	11.553530  
745.500000	11.255325  
746.000000	11.175742  
746.500000	10.842553  
747.000000	10.433128  
747.500000	10.060590  
748.000000	10.385143  
748.500000	10.767174  
749.000000	10.725492  
749.500000	10.058106  
750.000000	9.725719   
750.500000	9.703863   
751.000000	9.763560   
751.500000	9.398795   
752.000000	8.944356   
752.500000	8.470719   
753.000000	8.094212   
753.500000	7.778265   
754.000000	7.761280   
754.500000	7.838234   
755.000000	7.796704   
755.500000	7.766878   
756.000000	7.950196   
756.500000	8.001310   
757.000000	7.584174   
757.500000	6.954871   
758.000000	6.788901   
758.500000	6.891969   
759.000000	7.040621   
759.500000	6.908234   
760.000000	6.813007   
760.500000	6.588227   
761.000000	6.357106   
761.500000	5.934401   
762.000000	5.774916   
762.500000	5.968659   
763.000000	6.343098   
763.500000	6.354454   
764.000000	5.957333   
764.500000	5.431196   
765.000000	5.217757   
765.500000	5.241568   
766.000000	5.300939   
766.500000	5.226977   
767.000000	5.084462   
767.500000	4.993886   
768.000000	5.006234   
768.500000	4.974909   
769.000000	4.829666   
769.500000	4.650818   
770.000000	4.432143   
770.500000	4.236977   
771.000000	4.075159   
771.500000	4.087719   
772.000000	4.188068   
772.500000	4.264530   
773.000000	4.160257   
773.500000	3.976825   
774.000000	3.813674   
774.500000	3.770909   
775.000000	3.795613   
775.500000	3.885303   
776.000000	3.914863   
776.500000	3.893522   
777.000000	3.865189   
777.500000	3.968613   
778.000000	3.965659   
778.500000	3.765659   
779.000000	3.443340   
779.500000	3.320962   
780.000000	3.364015   
780.500000	3.347583   
781.000000	3.265204   
781.500000	3.240189   
782.000000	3.380946   
782.500000	3.348757   
783.000000	3.179628   
783.500000	2.946431   
784.000000	2.871825   
784.500000	2.895765   
785.000000	3.021825   
785.500000	3.215022   
786.000000	3.353303   
786.500000	3.299272   
787.000000	3.074916   
787.500000	2.958643   
788.000000	2.948787   
788.500000	3.041787   
789.000000	3.067204   
789.500000	3.023613   
790.000000	2.902212   
790.500000	2.878166   
791.000000	2.965090   
791.500000	3.072053   
792.000000	3.096378   
792.500000	2.970939   
793.000000	2.899939   
793.500000	2.761515   
794.000000	2.656409   
794.500000	2.513939   
795.000000	2.510863   
795.500000	2.441598   
796.000000	2.534507   
796.500000	2.607818   
797.000000	2.680500   
797.500000	2.490924   
798.000000	2.280227   
798.500000	2.178954   
799.000000	2.373204   
799.500000	2.607522   
800.000000	2.761098   
800.500000	2.766424   
801.000000	2.720303   
801.500000	2.771492   
802.000000	2.713977   
802.500000	2.684212   
803.000000	2.543015   
803.500000	2.523833   
804.000000	2.368893   
804.500000	2.329045   
805.000000	2.240606   
805.500000	2.232136   
806.000000	2.154446   
806.500000	2.096560   
807.000000	1.996409   
807.500000	1.760174   
808.000000	1.700454   
808.500000	1.683825   
809.000000	1.709848   
809.500000	1.648303   
810.000000	1.672287   
810.500000	1.627537   
811.000000	1.605121   
811.500000	1.585704   
812.000000	1.636583   
812.500000	1.610227   
813.000000	1.654174   
813.500000	1.768007   
814.000000	1.794500   
814.500000	1.631871   
815.000000	1.603931   
815.500000	1.717227   
816.000000	1.825666   
816.500000	1.731303   
817.000000	1.640143   
817.500000	1.671916   
818.000000	1.884833   
818.500000	2.159174   
819.000000	2.351257   
819.500000	2.342068   
820.000000	2.207931   
820.500000	2.143128   
821.000000	2.210560   
821.500000	2.437931   
822.000000	2.617818   
822.500000	2.588643   
823.000000	2.507484   
823.500000	2.498795   
824.000000	2.617000   
824.500000	2.688848   
825.000000	2.709750   
825.500000	2.639734   
826.000000	2.484924   
826.500000	2.227340   
827.000000	2.116068   
827.500000	2.148083   
828.000000	2.308727   
828.500000	2.302416   
829.000000	2.104340   
829.500000	1.699742   
830.000000	1.441272   
830.500000	1.280371   
831.000000	1.227689   
831.500000	1.205022   
832.000000	1.231257   
832.500000	1.197719   
833.000000	1.006007   
833.500000	0.848469   
834.000000	0.953712   
834.500000	1.107856   
835.000000	1.157916   
835.500000	1.070166   
836.000000	1.043962   
836.500000	1.009083   
837.000000	0.986962   
837.500000	0.933371   
838.000000	0.942098   
838.500000	1.006765   
839.000000	1.007143   
839.500000	0.935053   
840.000000	0.887234   
840.500000	0.920439   
841.000000	0.885136   
841.500000	0.709393   
842.000000	0.544583   
842.500000	0.470371   
843.000000	0.477931   
843.500000	0.445128   
844.000000	0.444075   
844.500000	0.380560   
845.000000	0.254727   
845.500000	0.131356   
846.000000	0.108196   
846.500000	0.088848   
847.000000	0.077689   
847.500000	0.193424   
848.000000	0.300590   
848.500000	0.326037   
849.000000	0.167371   
849.500000	0.140606   
850.000000	0.124174   
850.500000	0.107666   
851.000000	-0.024909  
851.500000	0.028204   
852.000000	0.119780   
852.500000	0.165356   
853.000000	0.104666   
853.500000	0.174712   
854.000000	0.305242   
854.500000	0.282606   
855.000000	0.154333   
855.500000	0.169348   
856.000000	0.379045   
856.500000	0.485348   
857.000000	0.310712   
857.500000	0.080000   
858.000000	0.046886   
858.500000	0.136098   
859.000000	0.200446   
859.500000	0.099454   
860.000000	-0.113136  
860.500000	-0.266871  
861.000000	-0.242469  
861.500000	-0.090098  
862.000000	0.094098   
862.500000	0.152734   
863.000000	0.027386   
863.500000	-0.231371  
864.000000	-0.327386  
864.500000	-0.165340  
865.000000	0.061674   
865.500000	0.098810   
866.000000	0.060196   
866.500000	0.082848   
867.000000	0.161454   
867.500000	0.159583   
868.000000	0.093909   
868.500000	-0.001340  
869.000000	0.000310   
869.500000	0.029916   
870.000000	0.103356   
870.500000	0.126628   
871.000000	0.162143   
871.500000	0.128227   
872.000000	0.081757   
872.500000	-0.015333  
873.000000	-0.077946  
873.500000	-0.135863  
874.000000	-0.157606  
874.500000	-0.197113  
875.000000	-0.189212  
875.500000	-0.114287  
876.000000	0.062424   
876.500000	0.100681   
877.000000	0.066924   
877.500000	0.047454   
878.000000	0.129719   
878.500000	0.205439   
879.000000	0.217621   
879.500000	0.148734   
880.000000	0.085106   
880.500000	0.067575   
881.000000	0.073719   
881.500000	0.038121   
882.000000	-0.090886  
882.500000	-0.124818  
883.000000	-0.037962  
883.500000	0.092909   
884.000000	0.105121   
884.500000	0.070439   
885.000000	0.010098   
885.500000	-0.006825  
886.000000	0.007916   
886.500000	-0.021386  
887.000000	-0.019636  
887.500000	-0.044113  
888.000000	-0.014234  
888.500000	-0.059863  
889.000000	-0.073250  
889.500000	-0.080931  
890.000000	-0.036931  
890.500000	0.033621   
891.000000	0.113909   
891.500000	0.168825   
892.000000	0.157196   
892.500000	0.005984   
893.000000	-0.137037  
893.500000	-0.268136  
894.000000	-0.173356  
894.500000	-0.056590  
895.000000	0.092181   
895.500000	0.055348   
896.000000	0.062719   
896.500000	0.028674   
897.000000	0.023265   
897.500000	0.003181   
898.000000	-0.002583  
898.500000	0.003083   
899.000000	0.006416   
899.500000	0.020272   
900.000000	0.030560   
900.500000	0.033000   

