PE FL                   SPECTRUM    ASCII       PEDS        1.60        
  -1
S12#08.SP
24/04/15
15:06:15.00
24/04/15
15:07:41.00
Jan

900.500000
1









LS55
405.00
5.00
5.00
SCAN
1
20
100
100
0
400
0
1
0
1
5
ON
900 405 
1 0 0
#HDR
-1
-1
#GR
NM

0.00002384185791015625
0.0
450.000000
0.500000
902
8
322.961121
-0.363356
#DATA
450.000000	0.135000   
450.500000	0.147568   
451.000000	0.157106   
451.500000	0.080613   
452.000000	-0.085333  
452.500000	-0.285212  
453.000000	-0.363356  
453.500000	-0.326030  
454.000000	-0.171750  
454.500000	0.024856   
455.000000	0.182969   
455.500000	0.154946   
456.000000	0.028553   
456.500000	-0.083856  
457.000000	-0.074242  
457.500000	0.012863   
458.000000	0.143643   
458.500000	0.278931   
459.000000	0.252469   
459.500000	0.063765   
460.000000	-0.097219  
460.500000	0.149174   
461.000000	0.463946   
461.500000	0.561742   
462.000000	0.254666   
462.500000	-0.052659  
463.000000	-0.213083  
463.500000	-0.139386  
464.000000	0.002560   
464.500000	0.188795   
465.000000	0.290022   
465.500000	0.289704   
466.000000	0.181840   
466.500000	0.041537   
467.000000	-0.007515  
467.500000	0.093189   
468.000000	0.166015   
468.500000	0.170143   
469.000000	0.055249   
469.500000	-0.066098  
470.000000	-0.243098  
470.500000	-0.237742  
471.000000	-0.129166  
471.500000	0.079696   
472.000000	0.071984   
472.500000	-0.009674  
473.000000	-0.174204  
473.500000	-0.191234  
474.000000	0.053242   
474.500000	0.312416   
475.000000	0.375446   
475.500000	0.118750   
476.000000	-0.062098  
476.500000	-0.068901  
477.000000	0.115818   
477.500000	0.188803   
478.000000	0.156446   
478.500000	-0.025878  
479.000000	-0.167159  
479.500000	-0.171568  
480.000000	-0.085651  
480.500000	0.043356   
481.000000	0.210196   
481.500000	0.331492   
482.000000	0.335772   
482.500000	0.126106   
483.000000	-0.119121  
483.500000	-0.171507  
484.000000	0.034045   
484.500000	0.240719   
485.000000	0.318007   
485.500000	0.260007   
486.000000	0.240454   
486.500000	0.187606   
487.000000	0.164287   
487.500000	0.123356   
488.000000	0.130916   
488.500000	0.046833   
489.000000	0.035507   
489.500000	0.075530   
490.000000	0.204181   
490.500000	0.191166   
491.000000	0.098030   
491.500000	0.094530   
492.000000	0.226477   
492.500000	0.346401   
493.000000	0.260681   
493.500000	0.050787   
494.000000	-0.129000  
494.500000	-0.068189  
495.000000	0.125848   
495.500000	0.288651   
496.000000	0.352931   
496.500000	0.506901   
497.000000	0.698000   
497.500000	0.753825   
498.000000	0.635500   
498.500000	0.631212   
499.000000	0.656878   
499.500000	0.699772   
500.000000	0.675545   
500.500000	0.826750   
501.000000	0.998083   
501.500000	1.111159   
502.000000	1.061378   
502.500000	1.025909   
503.000000	0.981030   
503.500000	0.997871   
504.000000	1.139674   
504.500000	1.199196   
505.000000	1.265583   
505.500000	1.416181   
506.000000	1.798083   
506.500000	2.060303   
507.000000	2.052515   
507.500000	1.864287   
508.000000	2.048901   
508.500000	2.323212   
509.000000	2.510492   
509.500000	2.483848   
510.000000	2.624856   
510.500000	2.855575   
511.000000	3.063136   
511.500000	3.069712   
512.000000	3.053181   
512.500000	3.098000   
513.000000	3.121613   
513.500000	3.187159   
514.000000	3.242833   
514.500000	3.248901   
515.000000	3.212045   
515.500000	3.227666   
516.000000	3.347053   
516.500000	3.447083   
517.000000	3.438803   
517.500000	3.414439   
518.000000	3.486515   
518.500000	3.606257   
519.000000	3.590621   
519.500000	3.611696   
520.000000	3.571969   
520.500000	3.872060   
521.000000	4.115909   
521.500000	4.220212   
522.000000	4.056469   
522.500000	4.074409   
523.000000	4.133356   
523.500000	4.172166   
524.000000	3.996393   
524.500000	3.910924   
525.000000	3.969825   
525.500000	4.012916   
526.000000	4.186553   
526.500000	4.584348   
527.000000	5.123242   
527.500000	5.312946   
528.000000	5.269333   
528.500000	5.154477   
529.000000	5.479287   
529.500000	5.793901   
530.000000	5.891007   
530.500000	5.887795   
531.000000	6.256977   
531.500000	6.740136   
532.000000	6.960689   
532.500000	6.938409   
533.000000	7.035613   
533.500000	7.353969   
534.000000	7.783825   
534.500000	7.920734   
535.000000	8.040780   
535.500000	8.144378   
536.000000	8.409090   
536.500000	9.002833   
537.000000	9.692280   
537.500000	10.423363  
538.000000	10.874560  
538.500000	11.591469  
539.000000	12.313325  
539.500000	13.365113  
540.000000	13.868265  
540.500000	14.287128  
541.000000	14.472818  
541.500000	14.691431  
542.000000	15.133909  
542.500000	15.448590  
543.000000	15.110484  
543.500000	14.017045  
544.000000	13.088113  
544.500000	12.518856  
545.000000	12.109492  
545.500000	11.288537  
546.000000	10.675530  
546.500000	10.445318  
547.000000	10.420037  
547.500000	10.175439  
548.000000	9.512075   
548.500000	8.579984   
549.000000	7.680462   
549.500000	7.008204   
550.000000	6.433416   
550.500000	5.867356   
551.000000	5.289181   
551.500000	5.087075   
552.000000	4.927378   
552.500000	4.618863   
553.000000	4.128734   
553.500000	3.862689   
554.000000	3.693689   
554.500000	3.600507   
555.000000	3.437962   
555.500000	3.515568   
556.000000	3.562159   
556.500000	3.584681   
557.000000	3.478060   
557.500000	3.498863   
558.000000	3.499492   
558.500000	3.620106   
559.000000	3.666000   
559.500000	3.616356   
560.000000	3.414310   
560.500000	3.253325   
561.000000	3.123287   
561.500000	3.042628   
562.000000	3.081522   
562.500000	3.214863   
563.000000	3.387431   
563.500000	3.441606   
564.000000	3.548522   
564.500000	3.646742   
565.000000	3.746196   
565.500000	3.683977   
566.000000	3.679810   
566.500000	3.639825   
567.000000	3.710553   
567.500000	3.681303   
568.000000	3.561893   
568.500000	3.322234   
569.000000	3.294909   
569.500000	3.436446   
570.000000	3.649196   
570.500000	3.562977   
571.000000	3.459962   
571.500000	3.466939   
572.000000	3.476242   
572.500000	3.445787   
573.000000	3.415022   
573.500000	3.519560   
574.000000	3.455704   
574.500000	3.408750   
575.000000	3.369651   
575.500000	3.652795   
576.000000	3.780075   
576.500000	3.697060   
577.000000	3.357090   
577.500000	3.136878   
578.000000	3.258962   
578.500000	3.477878   
579.000000	3.479984   
579.500000	3.241530   
580.000000	3.299856   
580.500000	3.591469   
581.000000	3.790181   
581.500000	3.579787   
582.000000	3.235333   
582.500000	3.280636   
583.000000	3.607500   
583.500000	3.900053   
584.000000	3.877659   
584.500000	3.813030   
585.000000	3.829901   
585.500000	4.021621   
586.000000	4.091750   
586.500000	4.329553   
587.000000	4.496689   
587.500000	4.530424   
588.000000	4.325068   
588.500000	4.060613   
589.000000	3.866060   
589.500000	3.909515   
590.000000	4.032113   
590.500000	3.943969   
591.000000	3.783393   
591.500000	3.637356   
592.000000	3.971825   
592.500000	4.061469   
593.000000	4.138431   
593.500000	4.128606   
594.000000	4.394151   
594.500000	4.672681   
595.000000	5.126621   
595.500000	5.344575   
596.000000	5.547878   
596.500000	5.501636   
597.000000	5.338621   
597.500000	5.052530   
598.000000	4.980977   
598.500000	5.218462   
599.000000	5.651462   
599.500000	5.659356   
600.000000	5.494742   
600.500000	5.456590   
601.000000	5.778666   
601.500000	6.182257   
602.000000	6.478916   
602.500000	6.426636   
603.000000	6.251015   
603.500000	6.246151   
604.000000	6.423492   
604.500000	6.694651   
605.000000	6.875015   
605.500000	6.995356   
606.000000	7.359386   
606.500000	7.604590   
607.000000	7.654469   
607.500000	7.345477   
608.000000	7.411659   
608.500000	7.722803   
609.000000	8.395280   
609.500000	8.711856   
610.000000	8.826128   
610.500000	9.018568   
611.000000	9.649537   
611.500000	10.269696  
612.000000	10.125333  
612.500000	9.708371   
613.000000	9.748848   
613.500000	10.635280  
614.000000	11.443446  
614.500000	11.868727  
615.000000	11.988969  
615.500000	12.128136  
616.000000	12.463636  
616.500000	13.214416  
617.000000	14.199984  
617.500000	14.677727  
618.000000	15.067856  
618.500000	15.290507  
619.000000	15.800090  
619.500000	16.158250  
620.000000	16.889795  
620.500000	17.474696  
621.000000	17.653151  
621.500000	17.565212  
622.000000	18.139325  
622.500000	19.390265  
623.000000	20.352636  
623.500000	21.111651  
624.000000	22.329128  
624.500000	24.095689  
625.000000	25.057598  
625.500000	25.514613  
626.000000	26.010431  
626.500000	26.753628  
627.000000	27.254757  
627.500000	27.624909  
628.000000	28.546409  
628.500000	30.191325  
629.000000	32.030227  
629.500000	33.444787  
630.000000	34.682090  
630.500000	35.685045  
631.000000	36.879469  
631.500000	38.137833  
632.000000	39.453643  
632.500000	40.360893  
633.000000	41.601621  
633.500000	43.153651  
634.000000	45.376575  
634.500000	47.386159  
635.000000	49.529015  
635.500000	51.685901  
636.000000	53.983106  
636.500000	55.676901  
637.000000	57.115583  
637.500000	59.129113  
638.000000	61.550537  
638.500000	63.535681  
639.000000	65.201189  
639.500000	67.385575  
640.000000	69.613477  
640.500000	71.713234  
641.000000	73.482090  
641.500000	75.966303  
642.000000	78.829166  
642.500000	81.927840  
643.000000	84.597856  
643.500000	87.565068  
644.000000	90.098590  
644.500000	93.140787  
645.000000	96.211340  
645.500000	98.855250  
646.000000	100.960484 
646.500000	102.761848 
647.000000	104.768886 
647.500000	107.107439 
648.000000	110.915348 
648.500000	115.556128 
649.000000	120.108530 
649.500000	123.128159 
650.000000	125.748363 
650.500000	129.457431 
651.000000	133.995962 
651.500000	138.345037 
652.000000	141.577053 
652.500000	144.778265 
653.000000	148.392242 
653.500000	152.430954 
654.000000	156.399015 
654.500000	160.290643 
655.000000	164.392643 
655.500000	167.231037 
656.000000	169.926492 
656.500000	173.941780 
657.000000	179.303007 
657.500000	184.495886 
658.000000	189.153424 
658.500000	193.328196 
659.000000	197.458333 
659.500000	200.607401 
660.000000	203.723674 
660.500000	207.147696 
661.000000	211.718469 
661.500000	216.692462 
662.000000	221.730401 
662.500000	225.610803 
663.000000	228.955098 
663.500000	232.791037 
664.000000	237.199416 
664.500000	241.366886 
665.000000	244.964659 
665.500000	248.076106 
666.000000	251.606121 
666.500000	254.131893 
667.000000	256.234643 
667.500000	257.581090 
668.000000	261.771250 
668.500000	265.472878 
669.000000	269.633212 
669.500000	273.002287 
670.000000	277.980727 
670.500000	281.172962 
671.000000	282.768386 
671.500000	282.480628 
672.000000	283.938340 
672.500000	287.546121 
673.000000	291.255840 
673.500000	294.069348 
674.000000	295.090765 
674.500000	297.850931 
675.000000	302.416257 
675.500000	306.722719 
676.000000	307.564181 
676.500000	307.076090 
677.000000	308.102621 
677.500000	310.821659 
678.000000	313.126825 
678.500000	313.667136 
679.000000	314.775340 
679.500000	316.075121 
680.000000	317.689992 
680.500000	318.906772 
681.000000	321.348090 
681.500000	322.961121 
682.000000	322.677212 
682.500000	321.136356 
683.000000	320.509318 
683.500000	320.881803 
684.000000	320.344159 
684.500000	318.500159 
685.000000	315.813742 
685.500000	314.178295 
686.000000	315.078053 
686.500000	316.403590 
687.000000	315.829333 
687.500000	311.602454 
688.000000	309.238257 
688.500000	307.461378 
689.000000	306.149356 
689.500000	301.606371 
690.000000	298.127242 
690.500000	294.510015 
691.000000	291.528628 
691.500000	287.240477 
692.000000	283.687909 
692.500000	280.151795 
693.000000	277.149856 
693.500000	274.914674 
694.000000	272.499333 
694.500000	268.523333 
695.000000	262.480174 
695.500000	256.333386 
696.000000	251.184795 
696.500000	247.092689 
697.000000	241.745878 
697.500000	234.566068 
698.000000	226.934606 
698.500000	221.131795 
699.000000	217.073727 
699.500000	213.542651 
700.000000	209.373507 
700.500000	204.927704 
701.000000	199.831212 
701.500000	194.533242 
702.000000	188.701507 
702.500000	183.645212 
703.000000	178.696136 
703.500000	174.439598 
704.000000	169.147916 
704.500000	163.862666 
705.000000	158.913409 
705.500000	155.719393 
706.000000	151.862810 
706.500000	148.115310 
707.000000	144.040651 
707.500000	140.817424 
708.000000	136.356689 
708.500000	131.800295 
709.000000	127.895954 
709.500000	125.921030 
710.000000	123.136045 
710.500000	119.532424 
711.000000	115.569613 
711.500000	112.420446 
712.000000	109.352719 
712.500000	105.953954 
713.000000	102.394515 
713.500000	99.297787  
714.000000	96.091424  
714.500000	93.622454  
715.000000	91.469598  
715.500000	89.491946  
716.000000	85.734015  
716.500000	82.358196  
717.000000	79.762553  
717.500000	78.928295  
718.000000	76.829916  
718.500000	74.258583  
719.000000	71.614621  
719.500000	69.595477  
720.000000	67.191454  
720.500000	64.607439  
721.000000	62.659113  
721.500000	60.997674  
722.000000	59.204606  
722.500000	57.179992  
723.000000	55.736310  
723.500000	54.097977  
724.000000	52.041234  
724.500000	49.765007  
725.000000	48.379439  
725.500000	47.722045  
726.000000	46.901022  
726.500000	44.716742  
727.000000	42.341477  
727.500000	40.491628  
728.000000	39.626856  
728.500000	38.453750  
729.000000	37.326727  
729.500000	36.246893  
730.000000	35.635765  
730.500000	34.576795  
731.000000	33.493719  
731.500000	32.387507  
732.000000	31.505500  
732.500000	30.670825  
733.000000	29.803939  
733.500000	28.706272  
734.000000	27.522886  
734.500000	26.900189  
735.000000	26.639257  
735.500000	26.200386  
736.000000	25.339015  
736.500000	24.243454  
737.000000	23.359098  
737.500000	22.497022  
738.000000	22.112045  
738.500000	21.672174  
739.000000	21.369750  
739.500000	20.708833  
740.000000	20.409696  
740.500000	19.861325  
741.000000	19.539484  
741.500000	18.991916  
742.000000	18.495469  
742.500000	17.458606  
743.000000	16.832530  
743.500000	16.881803  
744.000000	17.248840  
744.500000	16.798575  
745.000000	15.597121  
745.500000	14.710159  
746.000000	14.226833  
746.500000	13.808106  
747.000000	13.385909  
747.500000	13.441068  
748.000000	13.564090  
748.500000	13.372393  
749.000000	12.914098  
749.500000	12.498954  
750.000000	12.345424  
750.500000	11.914696  
751.000000	11.546515  
751.500000	11.211727  
752.000000	11.042871  
752.500000	10.810628  
753.000000	10.703113  
753.500000	10.469750  
754.000000	10.178840  
754.500000	9.461204   
755.000000	8.885446   
755.500000	8.837151   
756.000000	9.350553   
756.500000	9.494825   
757.000000	9.012825   
757.500000	8.157507   
758.000000	7.884810   
758.500000	8.049378   
759.000000	8.202598   
759.500000	8.100484   
760.000000	8.002363   
760.500000	7.890757   
761.000000	7.675022   
761.500000	7.434257   
762.000000	7.234924   
762.500000	7.187469   
763.000000	7.129113   
763.500000	7.199810   
764.000000	7.345015   
764.500000	7.462075   
765.000000	7.194196   
765.500000	6.754765   
766.000000	6.355106   
766.500000	6.242249   
767.000000	6.270083   
767.500000	6.237136   
768.000000	6.017954   
768.500000	5.739090   
769.000000	5.576393   
769.500000	5.535931   
770.000000	5.425621   
770.500000	5.321962   
771.000000	5.282484   
771.500000	5.326128   
772.000000	5.285492   
772.500000	4.998871   
773.000000	4.748060   
773.500000	4.671962   
774.000000	4.875295   
774.500000	4.875515   
775.000000	4.691143   
775.500000	4.368386   
776.000000	4.442166   
776.500000	4.617772   
777.000000	4.732204   
777.500000	4.604628   
778.000000	4.385037   
778.500000	4.033962   
779.000000	3.826916   
779.500000	3.705962   
780.000000	3.691371   
780.500000	3.555477   
781.000000	3.568159   
781.500000	3.689234   
782.000000	3.954477   
782.500000	3.913984   
783.000000	3.705712   
783.500000	3.386075   
784.000000	3.351719   
784.500000	3.472613   
785.000000	3.648931   
785.500000	3.575863   
786.000000	3.346545   
786.500000	3.219227   
787.000000	3.284500   
787.500000	3.439659   
788.000000	3.348083   
788.500000	3.354765   
789.000000	3.298196   
789.500000	3.318181   
790.000000	3.116416   
790.500000	3.086159   
791.000000	3.027674   
791.500000	2.952318   
792.000000	2.689916   
792.500000	2.567560   
793.000000	2.608666   
793.500000	2.777454   
794.000000	2.946689   
794.500000	3.052265   
795.000000	3.064174   
795.500000	2.952803   
796.000000	2.798234   
796.500000	2.704287   
797.000000	2.748553   
797.500000	2.793007   
798.000000	2.725795   
798.500000	2.642772   
799.000000	2.698151   
799.500000	2.873204   
800.000000	2.923750   
800.500000	2.732204   
801.000000	2.417719   
801.500000	2.309287   
802.000000	2.520901   
802.500000	2.772984   
803.000000	2.723030   
803.500000	2.436030   
804.000000	2.310727   
804.500000	2.447356   
805.000000	2.646795   
805.500000	2.670181   
806.000000	2.536166   
806.500000	2.513242   
807.000000	2.688848   
807.500000	2.748939   
808.000000	2.532651   
808.500000	2.217492   
809.000000	2.110303   
809.500000	2.051295   
810.000000	1.935174   
810.500000	1.808348   
811.000000	1.836719   
811.500000	1.907477   
812.000000	1.879909   
812.500000	1.817053   
813.000000	1.775628   
813.500000	1.724196   
814.000000	1.551000   
814.500000	1.562015   
815.000000	1.728053   
815.500000	1.974507   
816.000000	1.912969   
816.500000	1.840848   
817.000000	1.798136   
817.500000	1.901636   
818.000000	1.985015   
818.500000	2.042250   
819.000000	2.004689   
819.500000	1.800886   
820.000000	1.623613   
820.500000	1.556901   
821.000000	1.830340   
821.500000	2.169636   
822.000000	2.669734   
822.500000	2.731484   
823.000000	2.635537   
823.500000	2.492840   
824.000000	2.597689   
824.500000	2.574500   
825.000000	2.465333   
825.500000	2.334628   
826.000000	2.449727   
826.500000	2.674893   
827.000000	2.605977   
827.500000	2.349280   
828.000000	2.010340   
828.500000	1.859780   
829.000000	1.788287   
829.500000	1.712015   
830.000000	1.599530   
830.500000	1.508924   
831.000000	1.413159   
831.500000	1.278924   
832.000000	1.167674   
832.500000	1.235022   
833.000000	1.367477   
833.500000	1.379439   
834.000000	1.138136   
834.500000	0.977886   
835.000000	0.986454   
835.500000	1.099924   
836.000000	1.089750   
836.500000	0.989250   
837.000000	0.901507   
837.500000	0.800681   
838.000000	0.779909   
838.500000	0.796409   
839.000000	0.896325   
839.500000	0.970681   
840.000000	1.000545   
840.500000	0.902931   
841.000000	0.797553   
841.500000	0.735189   
842.000000	0.665295   
842.500000	0.570886   
843.000000	0.572371   
843.500000	0.651492   
844.000000	0.695939   
844.500000	0.612000   
845.000000	0.479393   
845.500000	0.331515   
846.000000	0.213083   
846.500000	0.153469   
847.000000	0.240666   
847.500000	0.361931   
848.000000	0.349469   
848.500000	0.291568   
849.000000	0.324022   
849.500000	0.477583   
850.000000	0.525287   
850.500000	0.450196   
851.000000	0.334583   
851.500000	0.274250   
852.000000	0.178674   
852.500000	0.041590   
853.000000	-0.006257  
853.500000	0.008909   
854.000000	0.047886   
854.500000	0.027840   
855.000000	0.035265   
855.500000	0.024886   
856.000000	0.071083   
856.500000	0.178696   
857.000000	0.273037   
857.500000	0.250492   
858.000000	0.130409   
858.500000	0.080053   
859.000000	0.077439   
859.500000	0.088674   
860.000000	0.073166   
860.500000	0.090901   
861.000000	0.108719   
861.500000	0.115954   
862.000000	0.113871   
862.500000	0.105977   
863.000000	0.140037   
863.500000	0.185848   
864.000000	0.219750   
864.500000	0.116553   
865.000000	0.064318   
865.500000	0.085621   
866.000000	0.159863   
866.500000	0.119439   
867.000000	0.045386   
867.500000	-0.092356  
868.000000	-0.121765  
868.500000	-0.152871  
869.000000	-0.156727  
869.500000	-0.194757  
870.000000	-0.119613  
870.500000	0.041871   
871.000000	0.169280   
871.500000	0.105189   
872.000000	-0.000530  
872.500000	-0.049780  
873.000000	0.024522   
873.500000	0.126250   
874.000000	0.164856   
874.500000	0.048871   
875.000000	-0.019530  
875.500000	0.035363   
876.000000	0.220234   
876.500000	0.285901   
877.000000	0.179931   
877.500000	-0.018469  
878.000000	-0.156386  
878.500000	-0.168181  
879.000000	-0.076818  
879.500000	-0.025227  
880.000000	-0.030401  
880.500000	-0.071136  
881.000000	-0.094060  
881.500000	-0.118439  
882.000000	-0.071651  
882.500000	-0.072484  
883.000000	-0.090484  
883.500000	-0.179825  
884.000000	-0.172416  
884.500000	-0.119818  
885.000000	-0.010174  
885.500000	0.010765   
886.000000	0.030515   
886.500000	-0.002363  
887.000000	-0.014068  
887.500000	-0.023962  
888.000000	-0.107454  
888.500000	-0.154515  
889.000000	-0.086106  
889.500000	0.058810   
890.000000	0.057931   
890.500000	-0.035196  
891.000000	-0.114795  
891.500000	-0.051568  
892.000000	0.038174   
892.500000	0.053075   
893.000000	-0.041856  
893.500000	-0.124227  
894.000000	-0.119734  
894.500000	0.027704   
895.000000	0.118075   
895.500000	0.122643   
896.000000	0.035446   
896.500000	0.033098   
897.000000	0.059106   
897.500000	0.088848   
898.000000	0.090424   
898.500000	0.061386   
899.000000	-0.013106  
899.500000	-0.165121  
900.000000	-0.283613  
900.500000	-0.298000  

