PE FL                   SPECTRUM    ASCII       PEDS        1.60        
  -1
S12#02.SP
24/04/15
14:57:42.00
24/04/15
14:59:08.00
Jan

900.500000
1









LS55
405.00
5.00
5.00
SCAN
1
20
100
100
0
400
0
1
0
1
5
ON
900 405 
1 0 0
#HDR
-1
-1
#GR
NM

0.00002384185791015625
0.0
450.000000
0.500000
902
8
361.040643
-0.258598
#DATA
450.000000	0.001000   
450.500000	0.130840   
451.000000	0.298560   
451.500000	0.476939   
452.000000	0.391909   
452.500000	0.301984   
453.000000	0.092666   
453.500000	0.076098   
454.000000	-0.028462  
454.500000	0.046333   
455.000000	0.096893   
455.500000	0.240606   
456.000000	0.245090   
456.500000	0.223742   
457.000000	0.114977   
457.500000	0.067636   
458.000000	0.025090   
458.500000	0.066431   
459.000000	0.189287   
459.500000	0.251159   
460.000000	0.235681   
460.500000	0.128287   
461.000000	0.073954   
461.500000	-0.007590  
462.000000	-0.096712  
462.500000	-0.133128  
463.000000	0.001166   
463.500000	0.226371   
464.000000	0.381659   
464.500000	0.371916   
465.000000	0.194378   
465.500000	0.051242   
466.000000	0.087651   
466.500000	0.133159   
467.000000	0.085378   
467.500000	-0.028022  
468.000000	-0.075871  
468.500000	-0.010636  
469.000000	0.058757   
469.500000	0.091659   
470.000000	-0.029272  
470.500000	-0.077257  
471.000000	-0.116507  
471.500000	-0.088181  
472.000000	-0.204287  
472.500000	-0.152166  
473.000000	0.032250   
473.500000	0.187090   
474.000000	0.106121   
474.500000	-0.045719  
475.000000	-0.103189  
475.500000	-0.081189  
476.000000	-0.049469  
476.500000	0.061015   
477.000000	0.135310   
477.500000	0.155378   
478.000000	0.082166   
478.500000	0.051757   
479.000000	0.090992   
479.500000	0.211462   
480.000000	0.269439   
480.500000	0.287704   
481.000000	0.267734   
481.500000	0.165083   
482.000000	-0.041098  
482.500000	-0.252083  
483.000000	-0.212636  
483.500000	0.036159   
484.000000	0.203113   
484.500000	0.098378   
485.000000	-0.020037  
485.500000	0.007484   
486.000000	0.153060   
486.500000	0.174795   
487.000000	0.110757   
487.500000	0.036136   
488.000000	-0.005515  
488.500000	-0.060787  
489.000000	-0.022000  
489.500000	0.029053   
490.000000	0.083969   
490.500000	0.210734   
491.000000	0.437583   
491.500000	0.609833   
492.000000	0.627333   
492.500000	0.624696   
493.000000	0.613946   
493.500000	0.518181   
494.000000	0.220037   
494.500000	0.099060   
495.000000	0.184227   
495.500000	0.375325   
496.000000	0.421121   
496.500000	0.451984   
497.000000	0.523590   
497.500000	0.682219   
498.000000	0.714045   
498.500000	0.541386   
499.000000	0.404810   
499.500000	0.489174   
500.000000	0.753310   
500.500000	0.964348   
501.000000	1.072500   
501.500000	1.082227   
502.000000	1.063848   
502.500000	1.011401   
503.000000	1.047606   
503.500000	1.135416   
504.000000	1.176560   
504.500000	1.339780   
505.000000	1.705204   
505.500000	1.965340   
506.000000	2.014416   
506.500000	1.920128   
507.000000	2.003037   
507.500000	2.184856   
508.000000	2.251674   
508.500000	2.250272   
509.000000	2.307068   
509.500000	2.446113   
510.000000	2.553393   
510.500000	2.716568   
511.000000	2.844204   
511.500000	3.059272   
512.000000	3.072250   
512.500000	3.035424   
513.000000	2.925469   
513.500000	2.942257   
514.000000	2.964484   
514.500000	2.983424   
515.000000	2.922651   
515.500000	2.953340   
516.000000	3.058651   
516.500000	3.310022   
517.000000	3.519113   
517.500000	3.475871   
518.000000	3.432128   
518.500000	3.471151   
519.000000	3.484159   
519.500000	3.412484   
520.000000	3.344931   
520.500000	3.650446   
521.000000	4.095431   
521.500000	4.247121   
522.000000	4.104303   
522.500000	3.854704   
523.000000	3.702750   
523.500000	3.806143   
524.000000	4.125939   
524.500000	4.222787   
525.000000	4.253151   
525.500000	4.226492   
526.000000	4.435204   
526.500000	4.519030   
527.000000	4.520121   
527.500000	4.469969   
528.000000	4.796303   
528.500000	5.299234   
529.000000	5.857181   
529.500000	5.929318   
530.000000	5.683106   
530.500000	5.621659   
531.000000	6.178090   
531.500000	6.940037   
532.000000	7.347318   
532.500000	7.403825   
533.000000	7.474553   
533.500000	7.684242   
534.000000	7.806871   
534.500000	7.809643   
535.000000	8.059583   
535.500000	8.617545   
536.000000	9.369469   
536.500000	10.021628  
537.000000	10.510818  
537.500000	10.677068  
538.000000	10.769893  
538.500000	11.122462  
539.000000	11.909113  
539.500000	12.954825  
540.000000	13.962651  
540.500000	14.746219  
541.000000	15.185439  
541.500000	15.437287  
542.000000	15.210159  
542.500000	14.788803  
543.000000	14.014780  
543.500000	13.508446  
544.000000	13.351598  
544.500000	13.316431  
545.000000	12.799212  
545.500000	12.049280  
546.000000	11.594659  
546.500000	11.287939  
547.000000	10.665575  
547.500000	9.552325   
548.000000	8.845606   
548.500000	8.399143   
549.000000	7.971098   
549.500000	7.334659   
550.000000	6.941613   
550.500000	6.461901   
551.000000	5.778651   
551.500000	4.923545   
552.000000	4.516401   
552.500000	4.417007   
553.000000	4.403962   
553.500000	4.093848   
554.000000	3.753659   
554.500000	3.787136   
555.000000	4.097250   
555.500000	4.197613   
556.000000	3.849651   
556.500000	3.468598   
557.000000	3.319992   
557.500000	3.432083   
558.000000	3.428053   
558.500000	3.475439   
559.000000	3.514265   
559.500000	3.621136   
560.000000	3.604553   
560.500000	3.488416   
561.000000	3.297303   
561.500000	3.192795   
562.000000	3.183765   
562.500000	3.300856   
563.000000	3.543500   
563.500000	3.825590   
564.000000	3.918787   
564.500000	3.784530   
565.000000	3.538848   
565.500000	3.482606   
566.000000	3.396712   
566.500000	3.360113   
567.000000	3.306181   
567.500000	3.419462   
568.000000	3.522515   
568.500000	3.802734   
569.000000	3.999803   
569.500000	3.977212   
570.000000	3.588719   
570.500000	3.447734   
571.000000	3.582818   
571.500000	3.784015   
572.000000	3.657181   
572.500000	3.448530   
573.000000	3.363787   
573.500000	3.411303   
574.000000	3.479507   
574.500000	3.557000   
575.000000	3.661575   
575.500000	3.752196   
576.000000	3.761484   
576.500000	3.847636   
577.000000	3.897810   
577.500000	3.894098   
578.000000	3.668840   
578.500000	3.489712   
579.000000	3.397969   
579.500000	3.574530   
580.000000	3.808204   
580.500000	3.884878   
581.000000	3.720621   
581.500000	3.668818   
582.000000	3.872977   
582.500000	4.022500   
583.000000	3.950446   
583.500000	3.951128   
584.000000	4.070878   
584.500000	4.093393   
585.000000	3.876484   
585.500000	3.788530   
586.000000	3.814583   
586.500000	4.101651   
587.000000	4.190022   
587.500000	4.171265   
588.000000	3.888916   
588.500000	3.905977   
589.000000	3.805098   
589.500000	3.771598   
590.000000	3.903765   
590.500000	4.427810   
591.000000	4.675454   
591.500000	4.347492   
592.000000	3.969439   
592.500000	4.024606   
593.000000	4.350439   
593.500000	4.352719   
594.000000	4.378810   
594.500000	4.542318   
595.000000	4.799886   
595.500000	4.743439   
596.000000	4.773143   
596.500000	5.032060   
597.000000	5.449159   
597.500000	5.713401   
598.000000	5.775530   
598.500000	5.981424   
599.000000	6.168045   
599.500000	6.273174   
600.000000	6.101931   
600.500000	5.860560   
601.000000	5.890242   
601.500000	6.084507   
602.000000	6.173916   
602.500000	6.001719   
603.000000	6.191348   
603.500000	6.620250   
604.000000	7.117090   
604.500000	7.232606   
605.000000	7.322901   
605.500000	7.562113   
606.000000	7.789242   
606.500000	7.830113   
607.000000	7.875106   
607.500000	8.118454   
608.000000	8.659484   
608.500000	9.021378   
609.000000	9.205462   
609.500000	9.088901   
610.000000	9.084537   
610.500000	9.170537   
611.000000	9.629371   
611.500000	10.254992  
612.000000	10.825007  
612.500000	11.148303  
613.000000	11.143606  
613.500000	11.304886  
614.000000	11.704083  
614.500000	12.654500  
615.000000	13.099113  
615.500000	13.309886  
616.000000	13.063810  
616.500000	13.120750  
617.000000	13.449939  
617.500000	14.376681  
618.000000	15.313113  
618.500000	16.142439  
619.000000	16.725431  
619.500000	17.218734  
620.000000	17.898780  
620.500000	18.355272  
621.000000	18.796310  
621.500000	19.081045  
622.000000	19.781916  
622.500000	20.498545  
623.000000	21.209893  
623.500000	21.418825  
624.000000	22.118606  
624.500000	23.305734  
625.000000	24.766742  
625.500000	25.478909  
626.000000	26.007022  
626.500000	27.061015  
627.000000	29.140151  
627.500000	30.992984  
628.000000	31.784946  
628.500000	31.954310  
629.000000	32.935613  
629.500000	34.174954  
630.000000	34.938712  
630.500000	35.215681  
631.000000	36.437416  
631.500000	38.415939  
632.000000	40.666068  
632.500000	42.193219  
633.000000	43.843340  
633.500000	45.980484  
634.000000	48.286416  
634.500000	49.883924  
635.000000	50.792651  
635.500000	52.524545  
636.000000	55.505113  
636.500000	58.393113  
637.000000	59.653037  
637.500000	60.620333  
638.000000	62.756159  
638.500000	65.664333  
639.000000	68.527250  
639.500000	70.705196  
640.000000	72.883924  
640.500000	75.514621  
641.000000	78.254454  
641.500000	80.916272  
642.000000	83.125734  
642.500000	86.035068  
643.000000	88.867204  
643.500000	91.918446  
644.000000	94.650280  
644.500000	98.516590  
645.000000	102.338689 
645.500000	105.126030 
646.000000	107.808674 
646.500000	110.539090 
647.000000	113.634439 
647.500000	116.171666 
648.000000	119.622121 
648.500000	122.938030 
649.000000	125.983257 
649.500000	128.904257 
650.000000	132.341742 
650.500000	135.830469 
651.000000	138.580378 
651.500000	142.404818 
652.000000	147.336265 
652.500000	152.683962 
653.000000	157.402537 
653.500000	160.757856 
654.000000	163.454856 
654.500000	166.431446 
655.000000	171.047871 
655.500000	175.933810 
656.000000	181.281863 
656.500000	184.533250 
657.000000	187.627969 
657.500000	190.855068 
658.000000	196.758606 
658.500000	203.089500 
659.000000	209.090757 
659.500000	213.929946 
660.000000	218.772500 
660.500000	223.769863 
661.000000	229.048636 
661.500000	235.642651 
662.000000	240.986242 
662.500000	244.699886 
663.000000	247.020856 
663.500000	249.903393 
664.000000	253.200628 
664.500000	258.295621 
665.000000	263.881219 
665.500000	268.521734 
666.000000	271.322106 
666.500000	274.038613 
667.000000	277.391143 
667.500000	281.420545 
668.000000	284.986749 
668.500000	288.351068 
669.000000	291.383765 
669.500000	294.293750 
670.000000	297.815333 
670.500000	301.113969 
671.000000	304.757499 
671.500000	308.770621 
672.000000	313.850750 
672.500000	317.827553 
673.000000	320.916250 
673.500000	322.595143 
674.000000	324.948954 
674.500000	327.193742 
675.000000	329.998242 
675.500000	333.733242 
676.000000	337.921234 
676.500000	341.998818 
677.000000	344.562954 
677.500000	347.342196 
678.000000	349.442795 
678.500000	351.691045 
679.000000	352.295075 
679.500000	353.185871 
680.000000	353.253871 
680.500000	353.553462 
681.000000	354.829568 
681.500000	357.323196 
682.000000	360.102174 
682.500000	360.648848 
683.000000	360.057310 
683.500000	359.114242 
684.000000	359.894477 
684.500000	360.289166 
685.000000	361.040643 
685.500000	360.040090 
686.000000	359.347189 
686.500000	357.724454 
687.000000	356.363878 
687.500000	353.987977 
688.000000	352.312439 
688.500000	351.049583 
689.000000	349.774378 
689.500000	345.944962 
690.000000	340.312727 
690.500000	336.873507 
691.000000	335.486212 
691.500000	334.197045 
692.000000	329.746537 
692.500000	324.877295 
693.000000	319.669318 
693.500000	315.233757 
694.000000	309.675000 
694.500000	305.327560 
695.000000	301.328462 
695.500000	296.977984 
696.000000	291.076962 
696.500000	284.364333 
697.000000	277.639590 
697.500000	272.172439 
698.000000	268.242931 
698.500000	263.640068 
699.000000	258.255151 
699.500000	252.115037 
700.000000	246.521757 
700.500000	240.508840 
701.000000	234.796772 
701.500000	229.496356 
702.000000	225.480022 
702.500000	219.693280 
703.000000	212.875674 
703.500000	205.739507 
704.000000	201.450651 
704.500000	196.294719 
705.000000	190.718265 
705.500000	183.298553 
706.000000	178.597992 
706.500000	174.142340 
707.000000	170.389712 
707.500000	165.526901 
708.000000	161.769962 
708.500000	157.669295 
709.000000	153.654454 
709.500000	149.833803 
710.000000	146.255212 
710.500000	141.569734 
711.000000	136.187060 
711.500000	131.720575 
712.000000	129.118068 
712.500000	126.774477 
713.000000	123.798227 
713.500000	120.168196 
714.000000	116.773946 
714.500000	113.498196 
715.000000	109.927022 
715.500000	106.035727 
716.000000	102.568901 
716.500000	99.862848  
717.000000	97.329431  
717.500000	93.839431  
718.000000	89.941848  
718.500000	86.571818  
719.000000	83.864098  
719.500000	81.692659  
720.000000	79.940477  
720.500000	78.372325  
721.000000	76.336977  
721.500000	73.549977  
722.000000	70.389189  
722.500000	67.856272  
723.000000	66.121424  
723.500000	64.333734  
724.000000	62.030916  
724.500000	59.559530  
725.000000	57.818083  
725.500000	56.677303  
726.000000	55.547666  
726.500000	53.948803  
727.000000	51.653212  
727.500000	48.804939  
728.000000	47.045659  
728.500000	46.764924  
729.000000	46.519446  
729.500000	44.999909  
730.000000	42.682151  
730.500000	40.730022  
731.000000	39.356484  
731.500000	38.341295  
732.000000	37.525500  
732.500000	37.132310  
733.000000	36.704537  
733.500000	35.876780  
734.000000	34.786053  
734.500000	33.268196  
735.000000	31.722242  
735.500000	30.045378  
736.000000	28.917666  
736.500000	28.288113  
737.000000	27.909250  
737.500000	27.124818  
738.000000	25.978227  
738.500000	25.009303  
739.000000	24.570765  
739.500000	24.467227  
740.000000	24.029643  
740.500000	23.096939  
741.000000	21.964530  
741.500000	20.928083  
742.000000	20.192621  
742.500000	20.120893  
743.000000	20.166212  
743.500000	19.827166  
744.000000	18.614833  
744.500000	17.807340  
745.000000	17.466916  
745.500000	17.500075  
746.000000	16.909128  
746.500000	16.343151  
747.000000	15.827000  
747.500000	15.643871  
748.000000	15.471303  
748.500000	15.159386  
749.000000	14.740492  
749.500000	14.318356  
750.000000	13.905325  
750.500000	13.697075  
751.000000	13.455045  
751.500000	13.110424  
752.000000	12.735030  
752.500000	12.388946  
753.000000	12.183386  
753.500000	11.934242  
754.000000	11.729477  
754.500000	11.458212  
755.000000	11.263765  
755.500000	11.145636  
756.000000	11.112772  
756.500000	10.902439  
757.000000	10.500734  
757.500000	10.243477  
758.000000	9.911083   
758.500000	9.591363   
759.000000	9.454143   
759.500000	9.438454   
760.000000	9.329931   
760.500000	8.949803   
761.000000	8.841143   
761.500000	8.637886   
762.000000	8.651113   
762.500000	8.458257   
763.000000	8.428113   
763.500000	7.985363   
764.000000	7.463393   
764.500000	7.277196   
765.000000	7.431181   
765.500000	7.536727   
766.000000	7.070348   
766.500000	6.894303   
767.000000	6.733401   
767.500000	6.696113   
768.000000	6.233348   
768.500000	5.928181   
769.000000	6.028621   
769.500000	6.343833   
770.000000	6.463280   
770.500000	6.223674   
771.000000	5.935295   
771.500000	5.818257   
772.000000	5.869901   
772.500000	5.959416   
773.000000	5.917689   
773.500000	5.791151   
774.000000	5.384969   
774.500000	5.096310   
775.000000	4.843946   
775.500000	4.772371   
776.000000	4.657598   
776.500000	4.768787   
777.000000	4.862121   
777.500000	4.846787   
778.000000	4.490734   
778.500000	4.372318   
779.000000	4.352378   
779.500000	4.557681   
780.000000	4.731818   
780.500000	4.786151   
781.000000	4.480068   
781.500000	4.017136   
782.000000	3.712515   
782.500000	3.835416   
783.000000	4.024113   
783.500000	3.883280   
784.000000	3.567696   
784.500000	3.323219   
785.000000	3.348598   
785.500000	3.604825   
786.000000	3.842242   
786.500000	3.896075   
787.000000	3.775386   
787.500000	3.564795   
788.000000	3.336356   
788.500000	3.140954   
789.000000	3.100439   
789.500000	3.320265   
790.000000	3.537795   
790.500000	3.454242   
791.000000	3.228068   
791.500000	3.001757   
792.000000	3.005015   
792.500000	3.093189   
793.000000	3.221628   
793.500000	3.177007   
794.000000	3.026439   
794.500000	2.873803   
795.000000	2.834500   
795.500000	2.871621   
796.000000	2.872363   
796.500000	2.895878   
797.000000	2.935492   
797.500000	3.057606   
798.000000	3.016909   
798.500000	2.849113   
799.000000	2.657659   
799.500000	2.734750   
800.000000	2.888977   
800.500000	2.849674   
801.000000	2.560325   
801.500000	2.384598   
802.000000	2.402636   
802.500000	2.439227   
803.000000	2.433621   
803.500000	2.496795   
804.000000	2.552454   
804.500000	2.603568   
805.000000	2.529333   
805.500000	2.440590   
806.000000	2.293636   
806.500000	2.316204   
807.000000	2.410969   
807.500000	2.512606   
808.000000	2.530954   
808.500000	2.561522   
809.000000	2.574984   
809.500000	2.493166   
810.000000	2.510750   
810.500000	2.333015   
811.000000	2.049992   
811.500000	1.724931   
812.000000	1.820219   
812.500000	2.000871   
813.000000	2.200234   
813.500000	2.261674   
814.000000	2.441871   
814.500000	2.387969   
815.000000	2.248446   
815.500000	2.058946   
816.000000	1.945515   
816.500000	1.846893   
817.000000	1.943265   
817.500000	2.120371   
818.000000	2.186772   
818.500000	2.029825   
819.000000	1.793356   
819.500000	1.778128   
820.000000	1.943416   
820.500000	2.284833   
821.000000	2.554151   
821.500000	2.685931   
822.000000	2.625030   
822.500000	2.700265   
823.000000	2.808340   
823.500000	2.848719   
824.000000	2.809151   
824.500000	2.927500   
825.000000	3.071348   
825.500000	3.119151   
826.000000	2.961075   
826.500000	2.880098   
827.000000	2.844522   
827.500000	2.735212   
828.000000	2.620674   
828.500000	2.493242   
829.000000	2.207356   
829.500000	1.741439   
830.000000	1.470833   
830.500000	1.468803   
831.000000	1.671545   
831.500000	1.656227   
832.000000	1.515310   
832.500000	1.239265   
833.000000	1.035356   
833.500000	0.909174   
834.000000	0.929727   
834.500000	0.935371   
835.000000	0.956772   
835.500000	1.013969   
836.000000	1.065212   
836.500000	0.996833   
837.000000	0.806318   
837.500000	0.731492   
838.000000	0.837439   
838.500000	0.935825   
839.000000	0.917931   
839.500000	0.815545   
840.000000	0.740893   
840.500000	0.624227   
841.000000	0.590575   
841.500000	0.686424   
842.000000	0.912257   
842.500000	0.926242   
843.000000	0.823121   
843.500000	0.659250   
844.000000	0.500356   
844.500000	0.312628   
845.000000	0.261560   
845.500000	0.362674   
846.000000	0.545386   
846.500000	0.654507   
847.000000	0.660295   
847.500000	0.568848   
848.000000	0.354484   
848.500000	0.166030   
849.000000	0.140515   
849.500000	0.228424   
850.000000	0.341636   
850.500000	0.360045   
851.000000	0.343651   
851.500000	0.276856   
852.000000	0.273446   
852.500000	0.211787   
853.000000	0.188060   
853.500000	0.175492   
854.000000	0.260560   
854.500000	0.258174   
855.000000	0.175477   
855.500000	0.077287   
856.000000	0.048939   
856.500000	0.070939   
857.000000	0.083962   
857.500000	0.118931   
858.000000	0.125727   
858.500000	0.036318   
859.000000	-0.041500  
859.500000	-0.038045  
860.000000	0.115598   
860.500000	0.232303   
861.000000	0.322287   
861.500000	0.283681   
862.000000	0.244977   
862.500000	0.118295   
863.000000	0.098924   
863.500000	0.116931   
864.000000	0.228500   
864.500000	0.190977   
865.000000	0.176356   
865.500000	0.133954   
866.000000	0.165553   
866.500000	0.092590   
867.000000	0.038840   
867.500000	-0.005727  
868.000000	0.017446   
868.500000	-0.011522  
869.000000	-0.058250  
869.500000	-0.133636  
870.000000	-0.122916  
870.500000	-0.074590  
871.000000	0.042469   
871.500000	0.068931   
872.000000	0.121856   
872.500000	0.059174   
873.000000	0.004537   
873.500000	-0.106037  
874.000000	-0.043371  
874.500000	0.000378   
875.000000	0.077681   
875.500000	0.003901   
876.000000	0.022181   
876.500000	-0.032121  
877.000000	-0.060628  
877.500000	-0.151257  
878.000000	-0.110477  
878.500000	-0.052575  
879.000000	0.031174   
879.500000	0.048712   
880.000000	0.025719   
880.500000	-0.015992  
881.000000	-0.043575  
881.500000	0.001772   
882.000000	0.023522   
882.500000	-0.057386  
883.000000	-0.194840  
883.500000	-0.258598  
884.000000	-0.129106  
884.500000	0.081840   
885.000000	0.208901   
885.500000	0.163757   
886.000000	0.062310   
886.500000	-0.045719  
887.000000	-0.097098  
887.500000	-0.061992  
888.000000	-0.000893  
888.500000	0.026931   
889.000000	-0.007378  
889.500000	0.014689   
890.000000	0.032106   
890.500000	0.000151   
891.000000	-0.075583  
891.500000	-0.101113  
892.000000	-0.053818  
892.500000	0.021674   
893.000000	0.168537   
893.500000	0.233045   
894.000000	0.218530   
894.500000	0.058999   
895.000000	-0.006848  
895.500000	-0.045818  
896.000000	-0.031295  
896.500000	-0.092628  
897.000000	-0.109227  
897.500000	-0.056795  
898.000000	0.043613   
898.500000	0.049310   
899.000000	-0.026696  
899.500000	-0.059613  
900.000000	0.020310   
900.500000	0.198000   

