PE FL                   SPECTRUM    ASCII       PEDS        1.60        
  -1
S12#13.SP
24/04/15
15:13:23.00
24/04/15
15:14:49.00
Jan

900.500000
1









LS55
405.00
5.00
5.00
SCAN
1
20
100
100
0
400
0
1
0
1
5
ON
900 405 
1 0 0
#HDR
-1
-1
#GR
NM

0.00002384185791015625
0.0
450.000000
0.500000
902
8
294.840575
-0.250666
#DATA
450.000000	0.168000   
450.500000	-0.088560  
451.000000	-0.213856  
451.500000	-0.188643  
452.000000	-0.135924  
452.500000	-0.076666  
453.000000	-0.091265  
453.500000	-0.073575  
454.000000	-0.020651  
454.500000	0.102000   
455.000000	0.176439   
455.500000	0.130090   
456.000000	0.080325   
456.500000	0.131575   
457.000000	0.106954   
457.500000	-0.008333  
458.000000	-0.076128  
458.500000	-0.032272  
459.000000	0.008386   
459.500000	-0.014878  
460.000000	-0.041575  
460.500000	-0.026765  
461.000000	0.052749   
461.500000	0.132431   
462.000000	0.063310   
462.500000	-0.008712  
463.000000	-0.023772  
463.500000	0.042477   
464.000000	-0.049075  
464.500000	-0.164227  
465.000000	-0.174613  
465.500000	0.036439   
466.000000	0.232121   
466.500000	0.241227   
467.000000	0.131765   
467.500000	0.049242   
468.000000	0.071696   
468.500000	0.109613   
469.000000	0.111128   
469.500000	0.211007   
470.000000	0.322045   
470.500000	0.283371   
471.000000	0.098696   
471.500000	-0.049022  
472.000000	-0.104393  
472.500000	-0.024893  
473.000000	0.113659   
473.500000	0.215583   
474.000000	0.203628   
474.500000	0.133575   
475.000000	0.056189   
475.500000	0.131159   
476.000000	0.301863   
476.500000	0.371803   
477.000000	0.271151   
477.500000	0.063840   
478.000000	-0.095863  
478.500000	-0.207530  
479.000000	-0.188825  
479.500000	-0.029621  
480.000000	0.160931   
480.500000	0.199068   
481.000000	0.057469   
481.500000	-0.069962  
482.000000	-0.203840  
482.500000	-0.201424  
483.000000	-0.106628  
483.500000	0.068340   
484.000000	0.057090   
484.500000	0.067075   
485.000000	0.208053   
485.500000	0.430545   
486.000000	0.398833   
486.500000	0.201303   
487.000000	0.121151   
487.500000	0.160098   
488.000000	0.181856   
488.500000	0.090833   
489.000000	-0.007287  
489.500000	-0.179227  
490.000000	-0.178537  
490.500000	-0.047984  
491.000000	0.141969   
491.500000	0.213196   
492.000000	0.271977   
492.500000	0.314999   
493.000000	0.276500   
493.500000	0.209992   
494.000000	0.245219   
494.500000	0.482325   
495.000000	0.703083   
495.500000	0.809545   
496.000000	0.723234   
496.500000	0.518606   
497.000000	0.275424   
497.500000	0.168515   
498.000000	0.288053   
498.500000	0.531287   
499.000000	0.684818   
499.500000	0.720621   
500.000000	0.731265   
500.500000	0.742371   
501.000000	0.757128   
501.500000	0.812340   
502.000000	0.946696   
502.500000	1.078060   
503.000000	1.077878   
503.500000	0.978696   
504.000000	0.961681   
504.500000	1.082060   
505.000000	1.392909   
505.500000	1.631840   
506.000000	1.679704   
506.500000	1.691166   
507.000000	1.742727   
507.500000	1.884477   
508.000000	1.923189   
508.500000	2.020878   
509.000000	2.219227   
509.500000	2.562037   
510.000000	2.577734   
510.500000	2.481083   
511.000000	2.321000   
511.500000	2.473090   
512.000000	2.809901   
512.500000	3.162613   
513.000000	3.232128   
513.500000	3.200106   
514.000000	3.292295   
514.500000	3.471340   
515.000000	3.632030   
515.500000	3.637295   
516.000000	3.667401   
516.500000	3.620780   
517.000000	3.559393   
517.500000	3.500303   
518.000000	3.539098   
518.500000	3.594000   
519.000000	3.638757   
519.500000	3.612560   
520.000000	3.432886   
520.500000	3.431659   
521.000000	3.595681   
521.500000	3.687249   
522.000000	3.706780   
522.500000	3.666871   
523.000000	3.644454   
523.500000	3.583992   
524.000000	3.595484   
524.500000	3.640098   
525.000000	3.859984   
525.500000	4.145848   
526.000000	4.451409   
526.500000	4.681250   
527.000000	4.671969   
527.500000	4.827712   
528.000000	5.066750   
528.500000	5.406621   
529.000000	5.479651   
529.500000	5.525196   
530.000000	5.376727   
530.500000	5.542068   
531.000000	5.947166   
531.500000	6.517356   
532.000000	6.955568   
532.500000	7.002340   
533.000000	6.937174   
533.500000	6.857378   
534.000000	7.095424   
534.500000	7.436189   
535.000000	7.859196   
535.500000	7.910795   
536.000000	8.118848   
536.500000	8.983856   
537.000000	10.193530  
537.500000	11.046136  
538.000000	11.188992  
538.500000	11.498734  
539.000000	12.244636  
539.500000	13.405719  
540.000000	14.277469  
540.500000	14.591696  
541.000000	14.363916  
541.500000	14.111545  
542.000000	14.396719  
542.500000	14.750757  
543.000000	14.663409  
543.500000	13.869348  
544.000000	12.959969  
544.500000	12.064984  
545.000000	11.566636  
545.500000	11.456325  
546.000000	11.479378  
546.500000	10.961015  
547.000000	9.875098   
547.500000	8.806901   
548.000000	8.258628   
548.500000	8.056924   
549.000000	7.879446   
549.500000	7.478492   
550.000000	6.678409   
550.500000	5.692325   
551.000000	4.879280   
551.500000	4.494696   
552.000000	4.378431   
552.500000	4.410037   
553.000000	4.286772   
553.500000	4.011166   
554.000000	3.609310   
554.500000	3.403500   
555.000000	3.443628   
555.500000	3.624840   
556.000000	3.798727   
556.500000	3.762189   
557.000000	3.591000   
557.500000	3.344757   
558.000000	3.314045   
558.500000	3.373545   
559.000000	3.369651   
559.500000	3.261128   
560.000000	3.213651   
560.500000	3.568575   
561.000000	3.876507   
561.500000	3.968969   
562.000000	3.596931   
562.500000	3.295916   
563.000000	3.064106   
563.500000	3.138242   
564.000000	3.231575   
564.500000	3.441984   
565.000000	3.456696   
565.500000	3.326621   
566.000000	3.080621   
566.500000	2.984325   
567.000000	3.017575   
567.500000	3.350174   
568.000000	3.671946   
568.500000	3.801060   
569.000000	3.566068   
569.500000	3.264984   
570.000000	3.181780   
570.500000	3.406507   
571.000000	3.600106   
571.500000	3.597333   
572.000000	3.410492   
572.500000	3.404098   
573.000000	3.707045   
573.500000	4.136719   
574.000000	4.243431   
574.500000	4.113810   
575.000000	3.828772   
575.500000	3.600507   
576.000000	3.392750   
576.500000	3.246454   
577.000000	3.263734   
577.500000	3.413090   
578.000000	3.646166   
578.500000	3.762143   
579.000000	3.775787   
579.500000	3.593250   
580.000000	3.520621   
580.500000	3.604340   
581.000000	3.730136   
581.500000	3.706992   
582.000000	3.512446   
582.500000	3.503181   
583.000000	3.584030   
583.500000	3.765598   
584.000000	3.728916   
584.500000	3.737575   
585.000000	3.735916   
585.500000	3.829189   
586.000000	3.948363   
586.500000	4.217568   
587.000000	4.364765   
587.500000	4.287939   
588.000000	4.116689   
588.500000	4.178287   
589.000000	4.231666   
589.500000	4.232393   
590.000000	4.160765   
590.500000	4.449060   
591.000000	4.643696   
591.500000	4.562946   
592.000000	4.179318   
592.500000	3.976984   
593.000000	3.882674   
593.500000	3.958787   
594.000000	4.246863   
594.500000	4.597651   
595.000000	4.856893   
595.500000	4.789772   
596.000000	4.667734   
596.500000	4.472560   
597.000000	4.552977   
597.500000	4.773484   
598.000000	5.077325   
598.500000	5.229666   
599.000000	5.349083   
599.500000	5.441696   
600.000000	5.466939   
600.500000	5.496833   
601.000000	5.685280   
601.500000	5.982977   
602.000000	5.987469   
602.500000	5.925825   
603.000000	6.067507   
603.500000	6.404522   
604.000000	6.694462   
604.500000	7.005803   
605.000000	7.080810   
605.500000	7.130825   
606.000000	7.153196   
606.500000	7.474318   
607.000000	7.740712   
607.500000	7.959719   
608.000000	8.123742   
608.500000	8.640659   
609.000000	8.908727   
609.500000	8.915999   
610.000000	8.736893   
610.500000	8.950787   
611.000000	9.262143   
611.500000	9.724484   
612.000000	10.036030  
612.500000	10.327189  
613.000000	10.434356  
613.500000	10.707037  
614.000000	10.927242  
614.500000	11.362750  
615.000000	11.710825  
615.500000	12.031113  
616.000000	12.069886  
616.500000	12.042113  
617.000000	12.312287  
617.500000	13.124303  
618.000000	14.211333  
618.500000	14.835174  
619.000000	15.293053  
619.500000	15.558545  
620.000000	16.246840  
620.500000	17.331515  
621.000000	18.377643  
621.500000	18.934151  
622.000000	18.774257  
622.500000	18.911318  
623.000000	19.603522  
623.500000	20.658462  
624.000000	21.383666  
624.500000	22.139106  
625.000000	23.014696  
625.500000	23.838204  
626.000000	24.548689  
626.500000	25.474462  
627.000000	26.653287  
627.500000	28.150075  
628.000000	29.297424  
628.500000	30.270068  
629.000000	31.133212  
629.500000	32.517803  
630.000000	33.730068  
630.500000	34.628174  
631.000000	35.427401  
631.500000	36.528568  
632.000000	37.911416  
632.500000	38.772287  
633.000000	39.783606  
633.500000	41.150575  
634.000000	43.377651  
634.500000	45.765348  
635.000000	48.049704  
635.500000	49.764984  
636.000000	51.694469  
636.500000	54.025772  
637.000000	56.044462  
637.500000	57.349924  
638.000000	58.540159  
638.500000	60.220227  
639.000000	62.549159  
639.500000	65.208083  
640.000000	68.120454  
640.500000	71.078810  
641.000000	73.808454  
641.500000	75.562075  
642.000000	77.094416  
642.500000	79.169507  
643.000000	82.574553  
643.500000	86.066568  
644.000000	88.581242  
644.500000	89.691431  
645.000000	91.346651  
645.500000	93.403409  
646.000000	96.333416  
646.500000	98.934431  
647.000000	102.370174 
647.500000	105.852909 
648.000000	110.335651 
648.500000	113.896022 
649.000000	117.033416 
649.500000	119.293083 
650.000000	122.397333 
650.500000	125.935590 
651.000000	129.224219 
651.500000	131.232287 
652.000000	132.945886 
652.500000	135.858613 
653.000000	140.159757 
653.500000	145.305553 
654.000000	149.353219 
654.500000	154.283886 
655.000000	158.513250 
655.500000	162.140848 
656.000000	163.991666 
656.500000	167.452871 
657.000000	171.681825 
657.500000	176.617204 
658.000000	179.714916 
658.500000	182.936174 
659.000000	186.849719 
659.500000	191.092613 
660.000000	195.041757 
660.500000	198.921310 
661.000000	202.568363 
661.500000	205.781643 
662.000000	208.849113 
662.500000	211.983886 
663.000000	217.108045 
663.500000	222.132787 
664.000000	224.690242 
664.500000	224.272810 
665.000000	225.241954 
665.500000	230.449977 
666.000000	237.031583 
666.500000	241.647901 
667.000000	243.667340 
667.500000	245.508189 
668.000000	247.382462 
668.500000	250.102757 
669.000000	254.100583 
669.500000	257.923060 
670.000000	260.237340 
670.500000	260.255931 
671.000000	260.825416 
671.500000	263.413780 
672.000000	268.326878 
672.500000	272.396113 
673.000000	274.461484 
673.500000	276.678068 
674.000000	279.986068 
674.500000	283.837272 
675.000000	285.177878 
675.500000	285.530696 
676.000000	286.187924 
676.500000	289.724666 
677.000000	292.120439 
677.500000	292.855946 
678.000000	290.695196 
678.500000	290.445000 
679.000000	291.937325 
679.500000	293.958015 
680.000000	294.778659 
680.500000	294.812439 
681.000000	294.840575 
681.500000	293.644931 
682.000000	292.558060 
682.500000	292.061416 
683.000000	292.951409 
683.500000	293.700893 
684.000000	294.313712 
684.500000	293.985356 
685.000000	292.970583 
685.500000	291.072477 
686.000000	288.921439 
686.500000	286.065136 
687.000000	283.589878 
687.500000	281.640280 
688.000000	281.700984 
688.500000	280.438371 
689.000000	277.872598 
689.500000	273.641378 
690.000000	270.861795 
690.500000	266.904431 
691.000000	263.597962 
691.500000	260.284204 
692.000000	258.959446 
692.500000	254.896090 
693.000000	248.996136 
693.500000	241.786121 
694.000000	237.502409 
694.500000	233.254257 
695.000000	229.308136 
695.500000	225.074568 
696.000000	222.458659 
696.500000	217.321477 
697.000000	211.142280 
697.500000	204.858477 
698.000000	201.297825 
698.500000	196.621954 
699.000000	191.511250 
699.500000	185.904787 
700.000000	182.076174 
700.500000	178.152075 
701.000000	174.527083 
701.500000	170.456310 
702.000000	166.477727 
702.500000	161.778121 
703.000000	157.282431 
703.500000	153.048340 
704.000000	149.307000 
704.500000	145.352992 
705.000000	140.762681 
705.500000	136.413696 
706.000000	132.722333 
706.500000	130.214416 
707.000000	127.336681 
707.500000	123.717772 
708.000000	118.811030 
708.500000	114.324977 
709.000000	110.606962 
709.500000	108.678712 
710.000000	106.686621 
710.500000	104.544015 
711.000000	101.788303 
711.500000	99.062878  
712.000000	95.307840  
712.500000	91.883689  
713.000000	88.850227  
713.500000	86.891924  
714.000000	84.699371  
714.500000	82.575090  
715.000000	80.150469  
715.500000	77.839477  
716.000000	75.327462  
716.500000	73.371643  
717.000000	71.133575  
717.500000	69.063636  
718.000000	66.749159  
718.500000	65.045962  
719.000000	62.437704  
719.500000	60.190750  
720.000000	58.327765  
720.500000	57.581628  
721.000000	56.179340  
721.500000	54.218121  
722.000000	51.825727  
722.500000	49.423666  
723.000000	47.502045  
723.500000	46.346537  
724.000000	46.077825  
724.500000	45.310999  
725.000000	44.162553  
725.500000	42.220477  
726.000000	40.446242  
726.500000	38.599431  
727.000000	37.268416  
727.500000	36.161833  
728.000000	35.359462  
728.500000	34.509159  
729.000000	33.800856  
729.500000	32.921310  
730.000000	31.884416  
730.500000	30.753219  
731.000000	29.962825  
731.500000	29.079196  
732.000000	28.399454  
732.500000	27.341068  
733.000000	26.428537  
733.500000	25.383696  
734.000000	24.609325  
734.500000	23.933424  
735.000000	23.601719  
735.500000	23.258765  
736.000000	22.603090  
736.500000	21.935015  
737.000000	21.418037  
737.500000	21.019772  
738.000000	20.334030  
738.500000	19.623477  
739.000000	19.222803  
739.500000	18.624969  
740.000000	18.086409  
740.500000	17.560446  
741.000000	17.282272  
741.500000	16.475568  
742.000000	16.038924  
742.500000	15.988537  
743.000000	16.133037  
743.500000	15.496810  
744.000000	14.516659  
744.500000	13.864189  
745.000000	13.562083  
745.500000	13.188098  
746.000000	12.764121  
746.500000	12.759787  
747.000000	12.875484  
747.500000	12.728946  
748.000000	12.449151  
748.500000	12.182621  
749.000000	12.096227  
749.500000	11.741030  
750.000000	11.322068  
750.500000	10.814886  
751.000000	10.548462  
751.500000	10.336954  
752.000000	10.055204  
752.500000	9.577893   
753.000000	9.181886   
753.500000	9.259143   
754.000000	9.510174   
754.500000	9.485121   
755.000000	9.001128   
755.500000	8.248159   
756.000000	7.759022   
756.500000	7.829272   
757.000000	8.216227   
757.500000	8.162174   
758.000000	7.679257   
758.500000	7.357651   
759.000000	7.435401   
759.500000	7.521704   
760.000000	7.336121   
760.500000	7.164318   
761.000000	7.010287   
761.500000	6.844462   
762.000000	6.788113   
762.500000	6.802204   
763.000000	6.674909   
763.500000	6.301045   
764.000000	6.224522   
764.500000	6.394946   
765.000000	6.404969   
765.500000	6.080386   
766.000000	5.801234   
766.500000	5.752916   
767.000000	5.674712   
767.500000	5.606462   
768.000000	5.480977   
768.500000	5.594174   
769.000000	5.610719   
769.500000	5.634772   
770.000000	5.448954   
770.500000	5.087553   
771.000000	4.544878   
771.500000	4.336393   
772.000000	4.566507   
772.500000	4.824757   
773.000000	4.733643   
773.500000	4.436030   
774.000000	4.300939   
774.500000	4.172568   
775.000000	4.052272   
775.500000	4.050090   
776.000000	4.203174   
776.500000	3.962643   
777.000000	3.695719   
777.500000	3.719401   
778.000000	4.239257   
778.500000	4.586075   
779.000000	4.525666   
779.500000	4.046083   
780.000000	3.710878   
780.500000	3.529977   
781.000000	3.511416   
781.500000	3.417174   
782.000000	3.459666   
782.500000	3.561333   
783.000000	3.551090   
783.500000	3.213393   
784.000000	2.990462   
784.500000	3.080378   
785.000000	3.304196   
785.500000	3.377333   
786.000000	3.259318   
786.500000	3.178939   
787.000000	3.146568   
787.500000	3.199749   
788.000000	3.160151   
788.500000	3.147946   
789.000000	3.101886   
789.500000	3.113553   
790.000000	3.060507   
790.500000	3.085250   
791.000000	3.093310   
791.500000	3.106575   
792.000000	3.042901   
792.500000	3.058386   
793.000000	3.130840   
793.500000	3.124787   
794.000000	2.963371   
794.500000	2.791325   
795.000000	2.748499   
795.500000	2.852348   
796.000000	2.900151   
796.500000	2.826136   
797.000000	2.715045   
797.500000	2.761189   
798.000000	2.880606   
798.500000	2.908159   
799.000000	2.742340   
799.500000	2.555212   
800.000000	2.353431   
800.500000	2.328856   
801.000000	2.445984   
801.500000	2.617734   
802.000000	2.620378   
802.500000	2.498871   
803.000000	2.432977   
803.500000	2.435113   
804.000000	2.534431   
804.500000	2.566568   
805.000000	2.510696   
805.500000	2.313590   
806.000000	2.298643   
806.500000	2.456750   
807.000000	2.493242   
807.500000	2.301189   
808.000000	1.927689   
808.500000	1.853840   
809.000000	1.948037   
809.500000	2.149719   
810.000000	2.119340   
810.500000	1.877984   
811.000000	1.585462   
811.500000	1.476916   
812.000000	1.574325   
812.500000	1.543643   
813.000000	1.545825   
813.500000	1.633507   
814.000000	2.091484   
814.500000	2.336666   
815.000000	2.286780   
815.500000	2.006083   
816.000000	1.907795   
816.500000	1.819772   
817.000000	1.713863   
817.500000	1.634515   
818.000000	1.679643   
818.500000	1.833939   
819.000000	1.968750   
819.500000	2.098204   
820.000000	2.056984   
820.500000	1.883333   
821.000000	1.834712   
821.500000	2.057212   
822.000000	2.449242   
822.500000	2.762136   
823.000000	2.926340   
823.500000	2.815333   
824.000000	2.575272   
824.500000	2.445901   
825.000000	2.569636   
825.500000	2.681272   
826.000000	2.622340   
826.500000	2.457181   
827.000000	2.352257   
827.500000	2.186659   
828.000000	2.134446   
828.500000	2.129113   
829.000000	2.094871   
829.500000	1.733280   
830.000000	1.318416   
830.500000	1.097583   
831.000000	1.119030   
831.500000	1.190015   
832.000000	1.156863   
832.500000	1.191992   
833.000000	1.218969   
833.500000	1.288939   
834.000000	1.171318   
834.500000	1.060560   
835.000000	0.978378   
835.500000	1.068083   
836.000000	1.059878   
836.500000	1.033340   
837.000000	0.933893   
837.500000	0.940128   
838.000000	1.007712   
838.500000	1.051742   
839.000000	0.951931   
839.500000	0.801651   
840.000000	0.741431   
840.500000	0.831318   
841.000000	0.851666   
841.500000	0.761590   
842.000000	0.698856   
842.500000	0.775916   
843.000000	0.782492   
843.500000	0.646143   
844.000000	0.445015   
844.500000	0.371522   
845.000000	0.414931   
845.500000	0.489651   
846.000000	0.560045   
846.500000	0.601560   
847.000000	0.532136   
847.500000	0.498075   
848.000000	0.488613   
848.500000	0.506613   
849.000000	0.430401   
849.500000	0.372833   
850.000000	0.368621   
850.500000	0.381500   
851.000000	0.282590   
851.500000	0.050121   
852.000000	-0.079174  
852.500000	-0.052060  
853.000000	0.115393   
853.500000	0.233878   
854.000000	0.283189   
854.500000	0.299340   
855.000000	0.281856   
855.500000	0.261007   
856.000000	0.254530   
856.500000	0.262462   
857.000000	0.188363   
857.500000	0.115825   
858.000000	0.070401   
858.500000	0.089022   
859.000000	0.089840   
859.500000	0.156522   
860.000000	0.227628   
860.500000	0.319204   
861.000000	0.226575   
861.500000	0.118643   
862.000000	-0.010348  
862.500000	0.009803   
863.000000	-0.000901  
863.500000	-0.020234  
864.000000	-0.113166  
864.500000	-0.197583  
865.000000	-0.241772  
865.500000	-0.204856  
866.000000	-0.096856  
866.500000	-0.021818  
867.000000	-0.013416  
867.500000	-0.021689  
868.000000	-0.033674  
868.500000	-0.024363  
869.000000	-0.021090  
869.500000	0.029977   
870.000000	0.032522   
870.500000	0.016000   
871.000000	-0.011212  
871.500000	0.026053   
872.000000	0.086068   
872.500000	0.113022   
873.000000	0.091007   
873.500000	0.078931   
874.000000	0.121606   
874.500000	0.147462   
875.000000	0.096068   
875.500000	0.008401   
876.000000	-0.011931  
876.500000	0.047265   
877.000000	0.012734   
877.500000	-0.089174  
878.000000	-0.173643  
878.500000	-0.107931  
879.000000	-0.017757  
879.500000	0.015136   
880.000000	-0.045696  
880.500000	-0.075022  
881.000000	-0.034340  
881.500000	0.029492   
882.000000	0.131598   
882.500000	0.188045   
883.000000	0.211772   
883.500000	0.113553   
884.000000	-0.059742  
884.500000	-0.136143  
885.000000	-0.053250  
885.500000	0.106022   
886.000000	0.158871   
886.500000	0.127295   
887.000000	0.073598   
887.500000	0.141303   
888.000000	0.246757   
888.500000	0.276719   
889.000000	0.158689   
889.500000	0.052075   
890.000000	0.106689   
890.500000	0.201348   
891.000000	0.201401   
891.500000	0.136295   
892.000000	0.030962   
892.500000	-0.119136  
893.000000	-0.250666  
893.500000	-0.219492  
894.000000	-0.037787  
894.500000	0.068946   
895.000000	0.029492   
895.500000	-0.071068  
896.000000	-0.089386  
896.500000	-0.006954  
897.000000	0.115659   
897.500000	0.099992   
898.000000	0.016015   
898.500000	-0.102325  
899.000000	-0.117318  
899.500000	-0.037522  
900.000000	0.199075   
900.500000	0.567999   

