PE FL                   SPECTRUM    ASCII       PEDS        1.60        
  -1
S12#01.SP
24/04/15
14:56:17.00
24/04/15
14:57:42.00
Jan

900.500000
1









LS55
405.00
5.00
5.00
SCAN
1
20
100
100
0
400
0
1
0
1
5
ON
900 405 
1 0 0
#HDR
-1
-1
#GR
NM

0.00002384185791015625
0.0
450.000000
0.500000
902
8
376.889356
-0.335000
#DATA
450.000000	-0.335000  
450.500000	0.144643   
451.000000	0.276227   
451.500000	0.165674   
452.000000	0.143530   
452.500000	0.270181   
453.000000	0.201840   
453.500000	0.043765   
454.000000	-0.039318  
454.500000	0.005272   
455.000000	0.063848   
455.500000	-0.060492  
456.000000	-0.212166  
456.500000	-0.280431  
457.000000	-0.223742  
457.500000	-0.156977  
458.000000	-0.079901  
458.500000	0.015848   
459.000000	0.197166   
459.500000	0.314454   
460.000000	0.242765   
460.500000	0.147651   
461.000000	0.151931   
461.500000	0.332030   
462.000000	0.356984   
462.500000	0.104053   
463.000000	-0.189977  
463.500000	-0.138265  
464.000000	0.168250   
464.500000	0.305151   
465.000000	0.148825   
465.500000	-0.022007  
466.000000	-0.047454  
466.500000	-0.122015  
467.000000	-0.138151  
467.500000	0.000106   
468.000000	0.215750   
468.500000	0.211568   
469.000000	-0.000272  
469.500000	-0.113962  
470.000000	-0.105924  
470.500000	-0.012121  
471.000000	0.063651   
471.500000	0.096272   
472.000000	0.001136   
472.500000	-0.151931  
473.000000	-0.228946  
473.500000	-0.128318  
474.000000	0.016310   
474.500000	0.031583   
475.000000	-0.018886  
475.500000	-0.044386  
476.000000	0.038848   
476.500000	0.202780   
477.000000	0.372795   
477.500000	0.466969   
478.000000	0.381348   
478.500000	0.224272   
479.000000	0.107674   
479.500000	0.117083   
480.000000	0.092803   
480.500000	0.194734   
481.000000	0.319931   
481.500000	0.429893   
482.000000	0.270590   
482.500000	0.133128   
483.000000	0.094931   
483.500000	0.234431   
484.000000	0.291446   
484.500000	0.211825   
485.000000	0.013128   
485.500000	-0.076037  
486.000000	0.043515   
486.500000	0.220340   
487.000000	0.220924   
487.500000	0.092999   
488.000000	0.104250   
488.500000	0.262507   
489.000000	0.350992   
489.500000	0.333068   
490.000000	0.322878   
490.500000	0.315674   
491.000000	0.262272   
491.500000	0.222818   
492.000000	0.336893   
492.500000	0.379984   
493.000000	0.310416   
493.500000	0.179378   
494.000000	0.250257   
494.500000	0.351045   
495.000000	0.432704   
495.500000	0.419507   
496.000000	0.484545   
496.500000	0.587378   
497.000000	0.664424   
497.500000	0.685984   
498.000000	0.662318   
498.500000	0.621015   
499.000000	0.551303   
499.500000	0.538189   
500.000000	0.616181   
500.500000	0.786636   
501.000000	0.893772   
501.500000	1.004181   
502.000000	1.079045   
502.500000	1.158681   
503.000000	1.193893   
503.500000	1.318674   
504.000000	1.391340   
504.500000	1.414227   
505.000000	1.419689   
505.500000	1.482356   
506.000000	1.716303   
506.500000	1.861719   
507.000000	1.992484   
507.500000	2.086492   
508.000000	2.327484   
508.500000	2.446651   
509.000000	2.543287   
509.500000	2.553098   
510.000000	2.669196   
510.500000	2.698000   
511.000000	2.672318   
511.500000	2.669053   
512.000000	2.682704   
512.500000	2.688181   
513.000000	2.716886   
513.500000	2.929234   
514.000000	3.170007   
514.500000	3.487787   
515.000000	3.657151   
515.500000	3.760901   
516.000000	3.733000   
516.500000	3.787818   
517.000000	3.730545   
517.500000	3.686098   
518.000000	3.636333   
518.500000	3.604446   
519.000000	3.543621   
519.500000	3.584795   
520.000000	3.725128   
520.500000	3.789386   
521.000000	3.653439   
521.500000	3.627068   
522.000000	3.719181   
522.500000	3.684234   
523.000000	3.465401   
523.500000	3.495992   
524.000000	3.830128   
524.500000	4.296780   
525.000000	4.516310   
525.500000	4.502295   
526.000000	4.513704   
526.500000	4.723954   
527.000000	5.039477   
527.500000	5.163689   
528.000000	5.301628   
528.500000	5.291537   
529.000000	5.345098   
529.500000	5.179416   
530.000000	5.383249   
530.500000	5.801469   
531.000000	6.181189   
531.500000	6.018537   
532.000000	5.792666   
532.500000	6.038621   
533.000000	6.825598   
533.500000	7.841568   
534.000000	8.420196   
534.500000	8.628204   
535.000000	8.524568   
535.500000	8.676840   
536.000000	9.322303   
536.500000	9.833939   
537.000000	10.166901  
537.500000	10.293053  
538.000000	11.158590  
538.500000	12.148878  
539.000000	12.917068  
539.500000	12.995780  
540.000000	13.131954  
540.500000	13.611681  
541.000000	14.392136  
541.500000	14.899234  
542.000000	15.291750  
542.500000	15.151787  
543.000000	14.512833  
543.500000	13.466318  
544.000000	13.088598  
544.500000	12.874886  
545.000000	12.598515  
545.500000	11.648537  
546.000000	10.927060  
546.500000	10.463257  
547.000000	10.202151  
547.500000	9.737606   
548.000000	9.322371   
548.500000	8.602469   
549.000000	8.056386   
549.500000	7.419545   
550.000000	7.160734   
550.500000	6.590015   
551.000000	5.926386   
551.500000	5.201189   
552.000000	4.801265   
552.500000	4.524484   
553.000000	4.078689   
553.500000	3.687492   
554.000000	3.451045   
554.500000	3.647416   
555.000000	3.809719   
555.500000	3.883787   
556.000000	3.685348   
556.500000	3.496189   
557.000000	3.398454   
557.500000	3.370371   
558.000000	3.396909   
558.500000	3.677924   
559.000000	4.016696   
559.500000	4.132242   
560.000000	3.900227   
560.500000	3.633613   
561.000000	3.505666   
561.500000	3.512659   
562.000000	3.458621   
562.500000	3.442204   
563.000000	3.563272   
563.500000	3.861462   
564.000000	3.927015   
564.500000	3.928075   
565.000000	3.789901   
565.500000	3.866886   
566.000000	3.799393   
566.500000	3.809863   
567.000000	3.551757   
567.500000	3.341068   
568.000000	3.229803   
568.500000	3.491515   
569.000000	3.746022   
569.500000	3.785083   
570.000000	3.656174   
570.500000	3.687401   
571.000000	3.701772   
571.500000	3.784500   
572.000000	3.697712   
572.500000	3.782999   
573.000000	3.690272   
573.500000	3.692318   
574.000000	3.416734   
574.500000	3.318295   
575.000000	3.278060   
575.500000	3.579909   
576.000000	3.731083   
576.500000	3.656098   
577.000000	3.451356   
577.500000	3.445113   
578.000000	3.483954   
578.500000	3.522068   
579.000000	3.464424   
579.500000	3.445098   
580.000000	3.374106   
580.500000	3.383469   
581.000000	3.511507   
581.500000	3.753984   
582.000000	3.956962   
582.500000	3.995446   
583.000000	3.882560   
583.500000	3.716469   
584.000000	3.802121   
584.500000	4.102113   
585.000000	4.253136   
585.500000	4.209962   
586.000000	4.141181   
586.500000	4.213643   
587.000000	4.077469   
587.500000	3.917363   
588.000000	3.871227   
588.500000	4.057954   
589.000000	4.292795   
589.500000	4.540249   
590.000000	4.752371   
590.500000	4.598454   
591.000000	4.210371   
591.500000	4.033825   
592.000000	4.286462   
592.500000	4.547916   
593.000000	4.570401   
593.500000	4.652727   
594.000000	4.881303   
594.500000	5.000143   
595.000000	4.936303   
595.500000	4.914674   
596.000000	5.099242   
596.500000	5.128075   
597.000000	5.042893   
597.500000	5.016424   
598.000000	5.447409   
598.500000	5.858643   
599.000000	5.997628   
599.500000	5.792030   
600.000000	5.624553   
600.500000	5.712249   
601.000000	5.786030   
601.500000	5.942522   
602.000000	6.199893   
602.500000	6.552401   
603.000000	6.655159   
603.500000	6.661719   
604.000000	6.637053   
604.500000	6.690007   
605.000000	6.846401   
605.500000	7.166022   
606.000000	7.733462   
606.500000	8.086181   
607.000000	8.110090   
607.500000	7.870083   
608.000000	8.073696   
608.500000	8.446901   
609.000000	8.697356   
609.500000	8.586424   
610.000000	8.878295   
610.500000	9.659356   
611.000000	10.601931  
611.500000	10.932833  
612.000000	11.013068  
612.500000	10.969181  
613.000000	11.025962  
613.500000	11.126181  
614.000000	11.651810  
614.500000	12.300454  
615.000000	12.664863  
615.500000	12.805772  
616.000000	13.089681  
616.500000	14.028242  
617.000000	14.896174  
617.500000	15.316666  
618.000000	15.181992  
618.500000	15.313757  
619.000000	15.737000  
619.500000	16.436196  
620.000000	17.328287  
620.500000	18.194545  
621.000000	19.175257  
621.500000	20.087924  
622.000000	20.991469  
622.500000	21.680424  
623.000000	22.124295  
623.500000	22.308840  
624.000000	22.442696  
624.500000	22.895250  
625.000000	23.736090  
625.500000	25.160333  
626.000000	26.468848  
626.500000	27.549598  
627.000000	28.581257  
627.500000	29.781681  
628.000000	30.652446  
628.500000	31.331787  
629.000000	32.736893  
629.500000	34.724856  
630.000000	36.739234  
630.500000	38.040015  
631.000000	39.302060  
631.500000	40.600840  
632.000000	41.415916  
632.500000	42.228075  
633.000000	43.960530  
633.500000	46.569378  
634.000000	48.739901  
634.500000	50.054454  
635.000000	51.253674  
635.500000	53.155022  
636.000000	55.635318  
636.500000	57.344174  
637.000000	59.393765  
637.500000	61.566022  
638.000000	64.630787  
638.500000	67.013545  
639.000000	69.297303  
639.500000	71.548454  
640.000000	74.625249  
640.500000	76.944712  
641.000000	78.394106  
641.500000	79.424393  
642.000000	81.849499  
642.500000	85.759969  
643.000000	90.524545  
643.500000	94.134333  
644.000000	96.847212  
644.500000	98.363583  
645.000000	100.931295 
645.500000	104.605015 
646.000000	109.319878 
646.500000	113.940106 
647.000000	117.578901 
647.500000	119.774553 
648.000000	121.523606 
648.500000	124.220537 
649.000000	127.460598 
649.500000	131.613174 
650.000000	135.158590 
650.500000	139.485143 
651.000000	143.361098 
651.500000	147.424500 
652.000000	150.848863 
652.500000	156.182613 
653.000000	161.815765 
653.500000	167.944037 
654.000000	171.431219 
654.500000	173.911931 
655.000000	176.593416 
655.500000	181.638568 
656.000000	187.191037 
656.500000	192.889712 
657.000000	197.543090 
657.500000	201.330098 
658.000000	203.844000 
658.500000	206.609181 
659.000000	210.025500 
659.500000	214.055310 
660.000000	217.849174 
660.500000	223.407393 
661.000000	230.266901 
661.500000	237.615553 
662.000000	242.517492 
662.500000	246.527553 
663.000000	250.367159 
663.500000	255.781242 
664.000000	261.621204 
664.500000	267.490590 
665.000000	271.382166 
665.500000	274.990340 
666.000000	278.801325 
666.500000	282.727727 
667.000000	285.835204 
667.500000	288.937969 
668.000000	292.715628 
668.500000	296.496030 
669.000000	299.301643 
669.500000	301.348196 
670.000000	303.962393 
670.500000	307.951424 
671.000000	313.255750 
671.500000	318.319613 
672.000000	322.015181 
672.500000	324.962136 
673.000000	328.406340 
673.500000	333.185803 
674.000000	337.447295 
674.500000	341.850560 
675.000000	344.318106 
675.500000	345.771568 
676.000000	346.553575 
676.500000	349.708083 
677.000000	354.552022 
677.500000	360.152659 
678.000000	362.867000 
678.500000	363.034318 
679.000000	363.423401 
679.500000	364.795590 
680.000000	366.676606 
680.500000	366.663727 
681.000000	367.879416 
681.500000	370.115446 
682.000000	373.843431 
682.500000	374.205068 
683.000000	373.793507 
683.500000	372.477310 
684.000000	374.783613 
684.500000	376.387227 
685.000000	376.889356 
685.500000	374.044878 
686.000000	372.238954 
686.500000	371.075787 
687.000000	370.833333 
687.500000	369.694227 
688.000000	368.499765 
688.500000	366.564212 
689.000000	364.579613 
689.500000	362.132628 
690.000000	360.151310 
690.500000	357.912651 
691.000000	354.894166 
691.500000	349.452484 
692.000000	344.550295 
692.500000	341.162946 
693.000000	338.080803 
693.500000	332.710250 
694.000000	326.730636 
694.500000	321.787212 
695.000000	317.320166 
695.500000	311.168325 
696.000000	305.688643 
696.500000	301.332295 
697.000000	296.924462 
697.500000	289.557325 
698.000000	281.116772 
698.500000	272.806803 
699.000000	267.158787 
699.500000	260.941939 
700.000000	255.679621 
700.500000	249.661075 
701.000000	244.040280 
701.500000	236.360310 
702.000000	230.746765 
702.500000	225.735227 
703.000000	221.661439 
703.500000	215.550280 
704.000000	210.419613 
704.500000	205.881136 
705.000000	200.820068 
705.500000	194.273553 
706.000000	187.811651 
706.500000	181.848098 
707.000000	176.106613 
707.500000	171.130575 
708.000000	167.326636 
708.500000	163.298227 
709.000000	158.574113 
709.500000	153.047492 
710.000000	148.790613 
710.500000	145.338030 
711.000000	142.431325 
711.500000	138.444689 
712.000000	134.156204 
712.500000	130.965962 
713.000000	128.213431 
713.500000	124.362962 
714.000000	119.037666 
714.500000	114.440325 
715.000000	110.709712 
715.500000	107.850416 
716.000000	104.899356 
716.500000	102.059416 
717.000000	99.045234  
717.500000	95.810340  
718.000000	92.981803  
718.500000	91.114143  
719.000000	88.862348  
719.500000	85.713931  
720.000000	82.031295  
720.500000	78.921590  
721.000000	76.504765  
721.500000	74.445833  
722.000000	72.113878  
722.500000	69.694719  
723.000000	67.313075  
723.500000	64.919916  
724.000000	63.101053  
724.500000	61.613409  
725.000000	59.691537  
725.500000	57.606287  
726.000000	55.284681  
726.500000	53.549090  
727.000000	51.991613  
727.500000	50.745060  
728.000000	49.657083  
728.500000	48.704196  
729.000000	47.314659  
729.500000	45.461901  
730.000000	44.108787  
730.500000	42.784803  
731.000000	41.814924  
731.500000	40.104856  
732.000000	38.943772  
732.500000	37.677674  
733.000000	36.643136  
733.500000	35.292962  
734.000000	34.241628  
734.500000	33.489545  
735.000000	32.778787  
735.500000	32.054901  
736.000000	31.237257  
736.500000	30.552969  
737.000000	29.636386  
737.500000	28.583598  
738.000000	27.801106  
738.500000	27.189712  
739.000000	26.401606  
739.500000	24.944318  
740.000000	24.025681  
740.500000	23.867909  
741.000000	23.934234  
741.500000	23.166787  
742.000000	21.894719  
742.500000	21.115825  
743.000000	20.810651  
743.500000	20.463409  
744.000000	19.813318  
744.500000	19.576719  
745.000000	19.558643  
745.500000	19.133098  
746.000000	17.670977  
746.500000	16.417250  
747.000000	15.867750  
747.500000	15.916257  
748.000000	15.871651  
748.500000	15.480810  
749.000000	15.031484  
749.500000	14.674462  
750.000000	14.575856  
750.500000	14.014325  
751.000000	13.520992  
751.500000	13.071530  
752.000000	13.353530  
752.500000	13.137757  
753.000000	12.482045  
753.500000	11.549030  
754.000000	11.269098  
754.500000	11.320409  
755.000000	11.564590  
755.500000	11.692946  
756.000000	11.659863  
756.500000	11.175545  
757.000000	10.315992  
757.500000	9.538810   
758.000000	9.347863   
758.500000	9.725212   
759.000000	10.042977  
759.500000	9.787431   
760.000000	9.035719   
760.500000	8.306931   
761.000000	8.131893   
761.500000	8.268742   
762.000000	8.558666   
762.500000	8.623659   
763.000000	8.376613   
763.500000	7.709643   
764.000000	7.307946   
764.500000	7.401393   
765.000000	7.794545   
765.500000	7.698378   
766.000000	7.159992   
766.500000	6.588083   
767.000000	6.171818   
767.500000	5.982287   
768.000000	6.124484   
768.500000	6.353037   
769.000000	6.531590   
769.500000	6.421265   
770.000000	6.431037   
770.500000	6.351348   
771.000000	6.243954   
771.500000	5.889310   
772.000000	5.760689   
772.500000	5.541916   
773.000000	5.456015   
773.500000	5.236893   
774.000000	5.326992   
774.500000	5.354492   
775.000000	5.411636   
775.500000	5.182977   
776.000000	5.144060   
776.500000	5.018651   
777.000000	4.942636   
777.500000	4.712689   
778.000000	4.545946   
778.500000	4.280712   
779.000000	4.014825   
779.500000	4.092242   
780.000000	4.398924   
780.500000	4.520143   
781.000000	4.284651   
781.500000	4.179795   
782.000000	4.333219   
782.500000	4.478462   
783.000000	4.424030   
783.500000	4.239924   
784.000000	4.134946   
784.500000	4.008810   
785.000000	3.849681   
785.500000	3.658378   
786.000000	3.592363   
786.500000	3.498371   
787.000000	3.429106   
787.500000	3.445757   
788.000000	3.642636   
788.500000	3.722621   
789.000000	3.616030   
789.500000	3.418757   
790.000000	3.350772   
790.500000	3.309674   
791.000000	3.217037   
791.500000	3.126848   
792.000000	3.097787   
792.500000	3.103037   
793.000000	3.080590   
793.500000	3.091962   
794.000000	3.190469   
794.500000	3.293219   
795.000000	3.238568   
795.500000	3.031439   
796.000000	2.980378   
796.500000	3.055265   
797.000000	3.127704   
797.500000	2.988750   
798.000000	2.916121   
798.500000	2.782189   
799.000000	2.743196   
799.500000	2.628386   
800.000000	2.690416   
800.500000	2.709772   
801.000000	2.683128   
801.500000	2.558628   
802.000000	2.555204   
802.500000	2.640037   
803.000000	2.712234   
803.500000	2.688712   
804.000000	2.556386   
804.500000	2.526303   
805.000000	2.508098   
805.500000	2.496537   
806.000000	2.475742   
806.500000	2.582537   
807.000000	2.615348   
807.500000	2.465136   
808.000000	2.182363   
808.500000	2.203075   
809.000000	2.329151   
809.500000	2.476128   
810.000000	2.402590   
810.500000	2.330295   
811.000000	2.252371   
811.500000	2.316568   
812.000000	2.308462   
812.500000	2.283666   
813.000000	2.163242   
813.500000	2.055909   
814.000000	2.000977   
814.500000	1.959128   
815.000000	1.942310   
815.500000	1.942242   
816.000000	1.874772   
816.500000	1.832386   
817.000000	1.899651   
817.500000	2.059000   
818.000000	2.192068   
818.500000	2.101189   
819.000000	1.894250   
819.500000	1.881340   
820.000000	2.228689   
820.500000	2.633348   
821.000000	2.703250   
821.500000	2.469901   
822.000000	2.317916   
822.500000	2.554734   
823.000000	2.830500   
823.500000	2.942424   
824.000000	2.655583   
824.500000	2.461863   
825.000000	2.522280   
825.500000	2.723257   
826.000000	2.656128   
826.500000	2.241098   
827.000000	1.908386   
827.500000	1.748431   
828.000000	1.824015   
828.500000	1.901234   
829.000000	1.970984   
829.500000	1.747893   
830.000000	1.438621   
830.500000	1.315333   
831.000000	1.414106   
831.500000	1.465189   
832.000000	1.307416   
832.500000	1.123598   
833.000000	1.047606   
833.500000	1.053492   
834.000000	1.080022   
834.500000	1.169166   
835.000000	1.263946   
835.500000	1.324242   
836.000000	1.282325   
836.500000	1.161666   
837.000000	1.039704   
837.500000	0.964128   
838.000000	0.888962   
838.500000	0.851053   
839.000000	0.879810   
839.500000	0.946363   
840.000000	1.021893   
840.500000	1.025636   
841.000000	0.943750   
841.500000	0.827446   
842.000000	0.668348   
842.500000	0.589371   
843.000000	0.631492   
843.500000	0.697659   
844.000000	0.701340   
844.500000	0.610689   
845.000000	0.462431   
845.500000	0.366856   
846.000000	0.399954   
846.500000	0.487234   
847.000000	0.618901   
847.500000	0.587189   
848.000000	0.491348   
848.500000	0.366727   
849.000000	0.377674   
849.500000	0.334113   
850.000000	0.308121   
850.500000	0.302098   
851.000000	0.384719   
851.500000	0.377818   
852.000000	0.284159   
852.500000	0.207386   
853.000000	0.206787   
853.500000	0.141257   
854.000000	0.093878   
854.500000	-0.022712  
855.000000	-0.108848  
855.500000	-0.231303  
856.000000	-0.090643  
856.500000	0.063651   
857.000000	0.153378   
857.500000	0.091893   
858.000000	0.089212   
858.500000	0.095924   
859.000000	0.047196   
859.500000	0.017143   
860.000000	0.132462   
860.500000	0.284416   
861.000000	0.374696   
861.500000	0.368833   
862.000000	0.330886   
862.500000	0.246007   
863.000000	0.195787   
863.500000	0.174856   
864.000000	0.144416   
864.500000	0.166916   
865.000000	0.177583   
865.500000	0.229037   
866.000000	0.122946   
866.500000	0.029916   
867.000000	-0.027242  
867.500000	0.024037   
868.000000	0.026749   
868.500000	0.087477   
869.000000	0.133356   
869.500000	0.181893   
870.000000	0.066575   
870.500000	-0.089007  
871.000000	-0.210431  
871.500000	-0.059234  
872.000000	0.107318   
872.500000	0.193818   
873.000000	0.073333   
873.500000	0.023181   
874.000000	0.037272   
874.500000	0.090727   
875.000000	0.057969   
875.500000	0.029106   
876.000000	0.021484   
876.500000	0.033901   
877.000000	-0.013446  
877.500000	-0.050212  
878.000000	-0.036621  
878.500000	0.016325   
879.000000	0.041954   
879.500000	0.137325   
880.000000	0.298863   
880.500000	0.404560   
881.000000	0.298613   
881.500000	0.074727   
882.000000	-0.043924  
882.500000	-0.016886  
883.000000	0.031954   
883.500000	0.059992   
884.000000	0.045106   
884.500000	0.027348   
885.000000	-0.010825  
885.500000	-0.026583  
886.000000	-0.050446  
886.500000	-0.031060  
887.000000	-0.005416  
887.500000	-0.006856  
888.000000	-0.092931  
888.500000	-0.147818  
889.000000	-0.101310  
889.500000	-0.025090  
890.000000	-0.041507  
890.500000	-0.089924  
891.000000	-0.112378  
891.500000	-0.037121  
892.000000	0.031083   
892.500000	0.153674   
893.000000	0.175689   
893.500000	0.114787   
894.000000	0.003893   
894.500000	0.041840   
895.000000	0.109939   
895.500000	0.115462   
896.000000	-0.007886  
896.500000	-0.038227  
897.000000	0.047393   
897.500000	0.113522   
898.000000	0.043462   
898.500000	-0.103613  
899.000000	-0.198969  
899.500000	-0.172825  
900.000000	-0.009651  
900.500000	0.267000   

