PE FL                   SPECTRUM    ASCII       PEDS        1.60        
  -1
S12#11.SP
24/04/15
15:10:32.00
24/04/15
15:11:58.00
Jan

900.500000
1









LS55
405.00
5.00
5.00
SCAN
1
20
100
100
0
400
0
1
0
1
5
ON
900 405 
1 0 0
#HDR
-1
-1
#GR
NM

0.00002384185791015625
0.0
450.000000
0.500000
902
8
306.039893
-0.470212
#DATA
450.000000	0.200000   
450.500000	0.155878   
451.000000	-0.001590  
451.500000	-0.126946  
452.000000	-0.042393  
452.500000	0.051477   
453.000000	0.035598   
453.500000	-0.109287  
454.000000	-0.278136  
454.500000	-0.399825  
455.000000	-0.379196  
455.500000	-0.148977  
456.000000	0.035674   
456.500000	0.128143   
457.000000	0.044651   
457.500000	0.120280   
458.000000	0.135575   
458.500000	0.080477   
459.000000	-0.091393  
459.500000	-0.129219  
460.000000	-0.008068  
460.500000	-0.004901  
461.000000	-0.157719  
461.500000	-0.387287  
462.000000	-0.470212  
462.500000	-0.331946  
463.000000	0.002356   
463.500000	0.262166   
464.000000	0.223181   
464.500000	0.047613   
465.000000	-0.139409  
465.500000	-0.200409  
466.000000	-0.116287  
466.500000	0.015810   
467.000000	0.100606   
467.500000	-0.012371  
468.000000	-0.045803  
468.500000	0.010924   
469.000000	0.053727   
469.500000	-0.023969  
470.000000	-0.002681  
470.500000	0.209090   
471.000000	0.395689   
471.500000	0.424969   
472.000000	0.188454   
472.500000	-0.070795  
473.000000	-0.256545  
473.500000	-0.187712  
474.000000	-0.050840  
474.500000	0.014969   
475.000000	-0.042962  
475.500000	-0.090893  
476.000000	-0.049575  
476.500000	-0.001545  
477.000000	0.055893   
477.500000	0.139204   
478.000000	0.235878   
478.500000	0.168681   
479.000000	0.115363   
479.500000	0.110159   
480.000000	0.174765   
480.500000	0.162492   
481.000000	0.169348   
481.500000	0.178803   
482.000000	0.267022   
482.500000	0.280128   
483.000000	0.321424   
483.500000	0.333083   
484.000000	0.298371   
484.500000	0.118530   
485.000000	-0.051265  
485.500000	-0.169022  
486.000000	-0.099537  
486.500000	-0.019939  
487.000000	0.044825   
487.500000	0.071174   
488.000000	0.114901   
488.500000	-0.058045  
489.000000	-0.252757  
489.500000	-0.351121  
490.000000	-0.183537  
490.500000	-0.042303  
491.000000	-0.018409  
491.500000	-0.039265  
492.000000	0.078984   
492.500000	0.179439   
493.000000	0.102469   
493.500000	0.048757   
494.000000	0.099583   
494.500000	0.313280   
495.000000	0.450560   
495.500000	0.458856   
496.000000	0.347628   
496.500000	0.259166   
497.000000	0.261454   
497.500000	0.407272   
498.000000	0.612537   
498.500000	0.661249   
499.000000	0.572750   
499.500000	0.485643   
500.000000	0.580378   
500.500000	0.760106   
501.000000	0.880484   
501.500000	0.952022   
502.000000	1.016242   
502.500000	1.129318   
503.000000	1.196962   
503.500000	1.258492   
504.000000	1.225121   
504.500000	1.252787   
505.000000	1.234984   
505.500000	1.343613   
506.000000	1.569606   
506.500000	1.910234   
507.000000	2.124765   
507.500000	2.195553   
508.000000	2.268636   
508.500000	2.418409   
509.000000	2.563772   
509.500000	2.656500   
510.000000	2.799098   
510.500000	2.858500   
511.000000	2.777136   
511.500000	2.717909   
512.000000	2.721189   
512.500000	2.791530   
513.000000	2.902492   
513.500000	3.086969   
514.000000	3.288151   
514.500000	3.398507   
515.000000	3.352500   
515.500000	3.250037   
516.000000	3.188106   
516.500000	3.202848   
517.000000	3.262409   
517.500000	3.262106   
518.000000	3.248689   
518.500000	3.369931   
519.000000	3.655462   
519.500000	3.920136   
520.000000	3.863128   
520.500000	3.525409   
521.000000	3.293734   
521.500000	3.391515   
522.000000	3.697151   
522.500000	3.916045   
523.000000	3.966598   
523.500000	3.920439   
524.000000	3.863280   
524.500000	3.872060   
525.000000	3.993772   
525.500000	4.194628   
526.000000	4.445628   
526.500000	4.905325   
527.000000	5.390772   
527.500000	5.590674   
528.000000	5.401189   
528.500000	5.383348   
529.000000	5.580568   
529.500000	5.720174   
530.000000	5.613083   
530.500000	5.669939   
531.000000	5.829462   
531.500000	6.051242   
532.000000	6.198583   
532.500000	6.431234   
533.000000	6.715431   
533.500000	6.960727   
534.000000	7.252636   
534.500000	7.471515   
535.000000	7.640174   
535.500000	7.807924   
536.000000	8.352378   
536.500000	9.001234   
537.000000	9.779795   
537.500000	10.386901  
538.000000	11.033166  
538.500000	11.617371  
539.000000	12.269689  
539.500000	12.790977  
540.000000	13.438250  
540.500000	14.143045  
541.000000	14.980098  
541.500000	15.326424  
542.000000	15.280424  
542.500000	14.883159  
543.000000	14.633856  
543.500000	14.145939  
544.000000	13.567196  
544.500000	12.961280  
545.000000	12.578696  
545.500000	12.050356  
546.000000	11.499765  
546.500000	10.906977  
547.000000	10.317287  
547.500000	9.531121   
548.000000	8.749492   
548.500000	8.128628   
549.000000	7.518856   
549.500000	6.936484   
550.000000	6.588477   
550.500000	6.467795   
551.000000	6.171409   
551.500000	5.725287   
552.000000	5.091181   
552.500000	4.731030   
553.000000	4.537075   
553.500000	4.373848   
554.000000	3.980340   
554.500000	3.696500   
555.000000	3.611590   
555.500000	3.700848   
556.000000	3.575583   
556.500000	3.433810   
557.000000	3.409674   
557.500000	3.394462   
558.000000	3.396227   
558.500000	3.410242   
559.000000	3.448992   
559.500000	3.393757   
560.000000	3.437757   
560.500000	3.464780   
561.000000	3.411272   
561.500000	3.267530   
562.000000	3.147174   
562.500000	3.154000   
563.000000	3.179795   
563.500000	3.293106   
564.000000	3.402840   
564.500000	3.432310   
565.000000	3.402227   
565.500000	3.333196   
566.000000	3.323818   
566.500000	3.484901   
567.000000	3.707636   
567.500000	3.751446   
568.000000	3.589280   
568.500000	3.445219   
569.000000	3.422696   
569.500000	3.506007   
570.000000	3.480492   
570.500000	3.354659   
571.000000	3.169181   
571.500000	3.041265   
572.000000	3.020462   
572.500000	3.320522   
573.000000	3.755878   
573.500000	3.981507   
574.000000	3.919977   
574.500000	3.843568   
575.000000	3.956068   
575.500000	3.787068   
576.000000	3.486151   
576.500000	3.278265   
577.000000	3.508568   
577.500000	3.568378   
578.000000	3.440833   
578.500000	3.229189   
579.000000	3.186136   
579.500000	3.275750   
580.000000	3.281121   
580.500000	3.257946   
581.000000	3.164401   
581.500000	3.318863   
582.000000	3.437553   
582.500000	3.730000   
583.000000	4.036590   
583.500000	4.357083   
584.000000	4.192613   
584.500000	3.827227   
585.000000	3.543803   
585.500000	3.653333   
586.000000	3.923143   
586.500000	4.126212   
587.000000	4.107090   
587.500000	3.939848   
588.000000	3.811962   
588.500000	3.924454   
589.000000	3.973295   
589.500000	3.884242   
590.000000	3.824954   
590.500000	4.126696   
591.000000	4.440613   
591.500000	4.488045   
592.000000	4.301946   
592.500000	4.161674   
593.000000	4.093727   
593.500000	4.124909   
594.000000	4.415674   
594.500000	4.717825   
595.000000	4.703265   
595.500000	4.404803   
596.000000	4.415340   
596.500000	4.797537   
597.000000	5.066636   
597.500000	4.989022   
598.000000	4.913878   
598.500000	5.095204   
599.000000	5.387863   
599.500000	5.478575   
600.000000	5.563053   
600.500000	5.760734   
601.000000	5.952007   
601.500000	5.847356   
602.000000	5.827151   
602.500000	5.867249   
603.000000	6.017386   
603.500000	6.046727   
604.000000	6.177068   
604.500000	6.409174   
605.000000	6.657689   
605.500000	6.848189   
606.000000	7.114545   
606.500000	7.296181   
607.000000	7.462325   
607.500000	7.670765   
608.000000	8.080409   
608.500000	8.306939   
609.000000	8.234560   
609.500000	7.965734   
610.000000	8.118098   
610.500000	8.875628   
611.000000	9.499371   
611.500000	9.723234   
612.000000	9.697371   
612.500000	10.278606  
613.000000	11.028772  
613.500000	11.451015  
614.000000	11.196083  
614.500000	11.235287  
615.000000	11.991969  
615.500000	12.992454  
616.000000	13.518371  
616.500000	13.624946  
617.000000	13.849545  
617.500000	14.229924  
618.000000	14.712310  
618.500000	15.052000  
619.000000	15.157765  
619.500000	15.228863  
620.000000	15.829803  
620.500000	16.859742  
621.000000	17.677621  
621.500000	17.895530  
622.000000	18.198598  
622.500000	19.133333  
623.000000	20.226030  
623.500000	21.017219  
624.000000	21.563742  
624.500000	22.121522  
625.000000	22.746083  
625.500000	23.384204  
626.000000	24.290689  
626.500000	25.411204  
627.000000	27.029825  
627.500000	28.389954  
628.000000	29.665681  
628.500000	30.218401  
629.000000	30.707992  
629.500000	31.390378  
630.000000	33.072333  
630.500000	34.744924  
631.000000	36.442363  
631.500000	37.813000  
632.000000	39.081848  
632.500000	39.827742  
633.000000	40.617068  
633.500000	42.144962  
634.000000	44.761113  
634.500000	47.680007  
635.000000	49.658689  
635.500000	50.741242  
636.000000	51.378863  
636.500000	52.981613  
637.000000	54.967439  
637.500000	57.218446  
638.000000	59.364227  
638.500000	61.848583  
639.000000	64.460553  
639.500000	66.598848  
640.000000	68.266166  
640.500000	69.834681  
641.000000	71.851530  
641.500000	73.933575  
642.000000	76.108636  
642.500000	78.513772  
643.000000	81.005378  
643.500000	83.601363  
644.000000	86.172901  
644.500000	89.825522  
645.000000	93.673530  
645.500000	96.777689  
646.000000	98.560287  
646.500000	100.696537 
647.000000	104.065765 
647.500000	108.178500 
648.000000	111.860583 
648.500000	114.946651 
649.000000	117.466454 
649.500000	119.407856 
650.000000	121.227416 
650.500000	124.789371 
651.000000	130.053515 
651.500000	135.808340 
652.000000	139.669689 
652.500000	141.856765 
653.000000	143.695037 
653.500000	146.066053 
654.000000	149.553530 
654.500000	153.635939 
655.000000	158.440742 
655.500000	162.766727 
656.000000	167.271522 
656.500000	170.657143 
657.000000	173.664583 
657.500000	175.946765 
658.000000	179.925212 
658.500000	185.261621 
659.000000	190.614568 
659.500000	193.392507 
660.000000	195.682060 
660.500000	198.826136 
661.000000	203.112636 
661.500000	207.084712 
662.000000	210.949659 
662.500000	215.444810 
663.000000	220.192840 
663.500000	223.956575 
664.000000	227.236856 
664.500000	231.057530 
665.000000	235.825030 
665.500000	240.152401 
666.000000	243.343439 
666.500000	245.789643 
667.000000	248.693439 
667.500000	252.029651 
668.000000	254.224060 
668.500000	256.405227 
669.000000	258.689583 
669.500000	262.390212 
670.000000	265.603659 
670.500000	268.442060 
671.000000	271.048500 
671.500000	275.292454 
672.000000	279.589984 
672.500000	282.604924 
673.000000	284.062219 
673.500000	285.737553 
674.000000	288.076295 
674.500000	288.798015 
675.000000	288.923977 
675.500000	289.539037 
676.000000	292.405363 
676.500000	293.582515 
677.000000	294.005659 
677.500000	293.381689 
678.000000	296.173060 
678.500000	298.994787 
679.000000	301.181121 
679.500000	300.115962 
680.000000	298.836030 
680.500000	299.450840 
681.000000	302.235128 
681.500000	303.581090 
682.000000	302.381257 
682.500000	302.725378 
683.000000	304.443727 
683.500000	306.039893 
684.000000	303.822356 
684.500000	301.640946 
685.000000	300.112977 
685.500000	299.592575 
686.000000	298.061356 
686.500000	297.154568 
687.000000	296.138325 
687.500000	293.511727 
688.000000	290.250931 
688.500000	288.322090 
689.000000	286.976984 
689.500000	283.958310 
690.000000	279.877545 
690.500000	276.630575 
691.000000	274.878689 
691.500000	272.206015 
692.000000	267.960696 
692.500000	262.065916 
693.000000	256.718469 
693.500000	252.260954 
694.000000	250.113015 
694.500000	247.205393 
695.000000	243.016954 
695.500000	237.096863 
696.000000	230.917515 
696.500000	224.094984 
697.000000	217.827280 
697.500000	212.558386 
698.000000	209.004765 
698.500000	204.851219 
699.000000	199.839651 
699.500000	193.840378 
700.000000	188.321363 
700.500000	184.326613 
701.000000	180.550590 
701.500000	176.390250 
702.000000	171.758560 
702.500000	167.561878 
703.000000	163.517272 
703.500000	159.448833 
704.000000	154.901454 
704.500000	150.866689 
705.000000	147.535287 
705.500000	143.987030 
706.000000	139.655007 
706.500000	134.485515 
707.000000	129.233613 
707.500000	125.439780 
708.000000	122.362204 
708.500000	120.153143 
709.000000	118.165295 
709.500000	116.075462 
710.000000	113.146310 
710.500000	109.574189 
711.000000	105.814840 
711.500000	101.899333 
712.000000	98.140871  
712.500000	95.349734  
713.000000	93.339901  
713.500000	90.961924  
714.000000	87.595727  
714.500000	84.768136  
715.000000	82.421946  
715.500000	80.080628  
716.000000	77.553848  
716.500000	75.793492  
717.000000	73.839484  
717.500000	71.120098  
718.000000	68.101689  
718.500000	65.671143  
719.000000	63.421037  
719.500000	61.217659  
720.000000	60.017871  
720.500000	59.535825  
721.000000	58.357575  
721.500000	55.804962  
722.000000	53.255356  
722.500000	51.105651  
723.000000	49.625439  
723.500000	48.013590  
724.000000	46.442386  
724.500000	44.865022  
725.000000	43.495749  
725.500000	42.419431  
726.000000	41.065977  
726.500000	40.372560  
727.000000	39.668484  
727.500000	38.894060  
728.000000	36.445249  
728.500000	34.287590  
729.000000	32.663295  
729.500000	32.210386  
730.000000	31.431166  
730.500000	31.375977  
731.000000	31.260113  
731.500000	30.722727  
732.000000	28.989469  
732.500000	27.787606  
733.000000	27.315621  
733.500000	27.236045  
734.000000	26.126886  
734.500000	24.840022  
735.000000	24.129386  
735.500000	24.111886  
736.000000	23.650356  
736.500000	22.514477  
737.000000	21.482280  
737.500000	20.857924  
738.000000	20.339719  
738.500000	19.905742  
739.000000	19.559439  
739.500000	19.501053  
740.000000	19.253772  
740.500000	18.871250  
741.000000	18.172409  
741.500000	17.480424  
742.000000	16.748363  
742.500000	16.598507  
743.000000	16.590765  
743.500000	16.494265  
744.000000	15.885204  
744.500000	14.899075  
745.000000	13.927969  
745.500000	13.427181  
746.000000	13.233666  
746.500000	13.378651  
747.000000	13.548765  
747.500000	13.680515  
748.000000	13.428780  
748.500000	12.823530  
749.000000	12.016545  
749.500000	11.392757  
750.000000	11.094689  
750.500000	11.128590  
751.000000	11.155030  
751.500000	10.807037  
752.000000	10.347181  
752.500000	9.776249   
753.000000	9.505651   
753.500000	9.425446   
754.000000	9.413787   
754.500000	9.230757   
755.000000	9.037734   
755.500000	9.066151   
756.000000	9.283606   
756.500000	9.418530   
757.000000	9.152833   
757.500000	8.641371   
758.000000	8.061992   
758.500000	7.651636   
759.000000	7.429303   
759.500000	7.194924   
760.000000	7.159128   
760.500000	7.067787   
761.000000	7.117689   
761.500000	7.122825   
762.000000	7.303772   
762.500000	7.402628   
763.000000	7.289500   
763.500000	6.954007   
764.000000	6.690242   
764.500000	6.553295   
765.000000	6.362681   
765.500000	6.146606   
766.000000	6.022643   
766.500000	6.225946   
767.000000	6.393166   
767.500000	6.334606   
768.000000	6.155749   
768.500000	5.762939   
769.000000	5.160886   
769.500000	4.543606   
770.000000	4.429621   
770.500000	4.640113   
771.000000	4.820348   
771.500000	4.798439   
772.000000	4.749628   
772.500000	4.743946   
773.000000	4.769151   
773.500000	4.871378   
774.000000	4.845318   
774.500000	4.665621   
775.000000	4.497878   
775.500000	4.550272   
776.000000	4.533772   
776.500000	4.240590   
777.000000	3.885613   
777.500000	3.711984   
778.000000	3.833742   
778.500000	4.092068   
779.000000	4.084878   
779.500000	3.859181   
780.000000	3.497477   
780.500000	3.352143   
781.000000	3.418484   
781.500000	3.569431   
782.000000	3.616409   
782.500000	3.530772   
783.000000	3.320416   
783.500000	3.170818   
784.000000	3.249659   
784.500000	3.366424   
785.000000	3.399128   
785.500000	3.243515   
786.000000	3.133340   
786.500000	3.104272   
787.000000	3.176757   
787.500000	3.229606   
788.000000	3.310810   
788.500000	3.321590   
789.000000	3.285030   
789.500000	3.154689   
790.000000	3.035636   
790.500000	2.931712   
791.000000	2.903075   
791.500000	2.933265   
792.000000	2.959098   
792.500000	2.941219   
793.000000	2.929227   
793.500000	2.919393   
794.000000	2.896386   
794.500000	2.842469   
795.000000	2.799454   
795.500000	2.832090   
796.000000	2.826303   
796.500000	2.782598   
797.000000	2.784227   
797.500000	2.930371   
798.000000	3.004659   
798.500000	2.894007   
799.000000	2.587143   
799.500000	2.432613   
800.000000	2.521189   
800.500000	2.655681   
801.000000	2.601500   
801.500000	2.426242   
802.000000	2.321833   
802.500000	2.293750   
803.000000	2.305590   
803.500000	2.340856   
804.000000	2.492537   
804.500000	2.589037   
805.000000	2.611363   
805.500000	2.578530   
806.000000	2.615628   
806.500000	2.497363   
807.000000	2.164272   
807.500000	1.677553   
808.000000	1.438825   
808.500000	1.542810   
809.000000	1.894303   
809.500000	2.137613   
810.000000	2.283492   
810.500000	2.374598   
811.000000	2.423166   
811.500000	2.255128   
812.000000	1.889166   
812.500000	1.734053   
813.000000	1.799765   
813.500000	1.860196   
814.000000	1.728681   
814.500000	1.663590   
815.000000	1.731916   
815.500000	1.915196   
816.000000	2.052159   
816.500000	2.088537   
817.000000	1.980833   
817.500000	1.843946   
818.000000	1.926280   
818.500000	2.115015   
819.000000	2.294212   
819.500000	2.349000   
820.000000	2.347416   
820.500000	2.169083   
821.000000	2.109712   
821.500000	2.183901   
822.000000	2.454007   
822.500000	2.525409   
823.000000	2.539606   
823.500000	2.471136   
824.000000	2.441916   
824.500000	2.454037   
825.000000	2.468484   
825.500000	2.489696   
826.000000	2.519181   
826.500000	2.579742   
827.000000	2.584409   
827.500000	2.341977   
828.000000	1.964636   
828.500000	1.594863   
829.000000	1.541439   
829.500000	1.555613   
830.000000	1.753840   
830.500000	1.691007   
831.000000	1.669750   
831.500000	1.485977   
832.000000	1.391090   
832.500000	1.190795   
833.000000	1.088674   
833.500000	1.009265   
834.000000	1.067696   
834.500000	1.043909   
835.000000	0.988651   
835.500000	0.884734   
836.000000	0.955098   
836.500000	1.107765   
837.000000	1.215265   
837.500000	1.138500   
838.000000	1.029371   
838.500000	0.938863   
839.000000	0.907704   
839.500000	0.899242   
840.000000	0.850924   
840.500000	0.734886   
841.000000	0.628037   
841.500000	0.650712   
842.000000	0.761393   
842.500000	0.691992   
843.000000	0.554643   
843.500000	0.380075   
844.000000	0.394734   
844.500000	0.434863   
845.000000	0.566151   
845.500000	0.595075   
846.000000	0.601689   
846.500000	0.580477   
847.000000	0.597878   
847.500000	0.585075   
848.000000	0.444863   
848.500000	0.230522   
849.000000	0.170750   
849.500000	0.292848   
850.000000	0.535378   
850.500000	0.508128   
851.000000	0.354416   
851.500000	0.076075   
852.000000	-0.076833  
852.500000	-0.169401  
853.000000	-0.136863  
853.500000	-0.032333  
854.000000	0.074780   
854.500000	0.208378   
855.000000	0.245545   
855.500000	0.224015   
856.000000	0.105287   
856.500000	0.121174   
857.000000	0.267007   
857.500000	0.399833   
858.000000	0.395901   
858.500000	0.268515   
859.000000	0.149098   
859.500000	0.005121   
860.000000	-0.108113  
860.500000	-0.275916  
861.000000	-0.303787  
861.500000	-0.236106  
862.000000	-0.100909  
862.500000	-0.006674  
863.000000	0.110583   
863.500000	0.218378   
864.000000	0.161719   
864.500000	-0.010575  
865.000000	-0.160750  
865.500000	-0.070325  
866.000000	0.102401   
866.500000	0.221295   
867.000000	0.188810   
867.500000	0.111007   
868.000000	0.099515   
868.500000	0.134795   
869.000000	0.127462   
869.500000	0.047204   
870.000000	-0.006378  
870.500000	0.006984   
871.000000	0.021954   
871.500000	0.009636   
872.000000	-0.005719  
872.500000	0.000795   
873.000000	-0.004121  
873.500000	-0.007159  
874.000000	-0.018136  
874.500000	-0.057765  
875.000000	-0.116606  
875.500000	-0.162560  
876.000000	-0.157166  
876.500000	-0.112946  
877.000000	-0.090128  
877.500000	-0.085090  
878.000000	-0.134962  
878.500000	-0.048053  
879.000000	0.139303   
879.500000	0.274530   
880.000000	0.132469   
880.500000	-0.085053  
881.000000	-0.140371  
881.500000	-0.029446  
882.000000	0.038613   
882.500000	0.028734   
883.000000	0.054318   
883.500000	0.036462   
884.000000	-0.029015  
884.500000	-0.085272  
885.000000	-0.051780  
885.500000	-0.023477  
886.000000	-0.049151  
886.500000	-0.079772  
887.000000	-0.053704  
887.500000	-0.042007  
888.000000	0.052606   
888.500000	0.169727   
889.000000	0.226287   
889.500000	0.169613   
890.000000	0.109068   
890.500000	0.088189   
891.000000	0.053522   
891.500000	-0.017007  
892.000000	-0.062143  
892.500000	-0.043704  
893.000000	-0.031196  
893.500000	-0.016545  
894.000000	-0.010090  
894.500000	-0.001340  
895.000000	-0.059553  
895.500000	-0.104825  
896.000000	-0.058712  
896.500000	0.155462   
897.000000	0.287795   
897.500000	0.243272   
898.000000	0.005545   
898.500000	-0.109386  
899.000000	-0.096939  
899.500000	-0.004856  
900.000000	-0.035340  
900.500000	-0.200000  

