PE FL                   SPECTRUM    ASCII       PEDS        1.60        
  -1
S12#24.SP
24/04/15
15:29:04.00
24/04/15
15:30:29.00
Jan

900.500000
1









LS55
405.00
5.00
5.00
SCAN
1
20
100
100
0
400
0
1
0
1
5
ON
900 405 
1 0 0
#HDR
-1
-1
#GR
NM

0.00002384185791015625
0.0
450.000000
0.500000
902
8
251.859234
-0.450159
#DATA
450.000000	0.333000   
450.500000	0.049159   
451.000000	0.021477   
451.500000	0.077704   
452.000000	-0.137833  
452.500000	-0.306939  
453.000000	-0.314151  
453.500000	-0.096393  
454.000000	-0.058909  
454.500000	-0.011181  
455.000000	-0.036106  
455.500000	0.054931   
456.000000	0.105969   
456.500000	0.238810   
457.000000	0.234537   
457.500000	0.176818   
458.000000	0.074583   
458.500000	0.098037   
459.000000	0.119219   
459.500000	0.050143   
460.000000	0.011719   
460.500000	0.047371   
461.000000	0.181492   
461.500000	0.232924   
462.000000	0.210696   
462.500000	0.271522   
463.000000	0.368234   
463.500000	0.341250   
464.000000	0.169537   
464.500000	0.011454   
465.000000	-0.001825  
465.500000	0.014992   
466.000000	0.007977   
466.500000	-0.097181  
467.000000	-0.182530  
467.500000	-0.321666  
468.000000	-0.387439  
468.500000	-0.450159  
469.000000	-0.340681  
469.500000	-0.137356  
470.000000	-0.004750  
470.500000	-0.087401  
471.000000	-0.205696  
471.500000	-0.177000  
472.000000	-0.048106  
472.500000	-0.054227  
473.000000	-0.123340  
473.500000	-0.079545  
474.000000	0.129318   
474.500000	0.236439   
475.000000	0.139340   
475.500000	-0.119787  
476.000000	-0.252196  
476.500000	-0.280840  
477.000000	-0.210212  
477.500000	-0.139446  
478.000000	-0.043704  
478.500000	0.002871   
479.000000	0.010136   
479.500000	-0.045325  
480.000000	-0.029613  
480.500000	-0.083007  
481.000000	-0.215772  
481.500000	-0.364962  
482.000000	-0.234045  
482.500000	0.066431   
483.000000	0.353522   
483.500000	0.350303   
484.000000	0.253068   
484.500000	0.197454   
485.000000	0.247795   
485.500000	0.212500   
486.000000	0.080022   
486.500000	0.006886   
487.000000	0.043090   
487.500000	0.101553   
488.000000	0.033303   
488.500000	-0.059318  
489.000000	-0.088537  
489.500000	-0.057212  
490.000000	-0.012871  
490.500000	0.140931   
491.000000	0.268318   
491.500000	0.242393   
492.000000	0.110803   
492.500000	0.123060   
493.000000	0.328272   
493.500000	0.465825   
494.000000	0.204409   
494.500000	0.015734   
495.000000	0.103946   
495.500000	0.394159   
496.000000	0.388128   
496.500000	0.164409   
497.000000	0.006537   
497.500000	0.173696   
498.000000	0.473946   
498.500000	0.772121   
499.000000	0.939409   
499.500000	0.873712   
500.000000	0.768053   
500.500000	0.724401   
501.000000	0.767143   
501.500000	0.766689   
502.000000	0.761340   
502.500000	0.869310   
503.000000	0.959234   
503.500000	0.997878   
504.000000	1.051439   
504.500000	1.319916   
505.000000	1.556196   
505.500000	1.743833   
506.000000	1.820962   
506.500000	1.918878   
507.000000	1.908636   
507.500000	1.891121   
508.000000	1.879621   
508.500000	1.894469   
509.000000	1.932204   
509.500000	2.045136   
510.000000	2.283045   
510.500000	2.513295   
511.000000	2.710401   
511.500000	2.810598   
512.000000	2.857477   
512.500000	2.871318   
513.000000	2.967053   
513.500000	3.029287   
514.000000	3.036015   
514.500000	3.038295   
515.000000	3.167340   
515.500000	3.399545   
516.000000	3.555901   
516.500000	3.574780   
517.000000	3.403598   
517.500000	3.183250   
518.000000	3.132856   
518.500000	3.339780   
519.000000	3.519628   
519.500000	3.520310   
520.000000	3.425250   
520.500000	3.376590   
521.000000	3.437265   
521.500000	3.592196   
522.000000	3.663045   
522.500000	3.634159   
523.000000	3.537992   
523.500000	3.709871   
524.000000	4.022022   
524.500000	4.219742   
525.000000	4.153507   
525.500000	4.088840   
526.000000	4.211598   
526.500000	4.379727   
527.000000	4.618628   
527.500000	4.773446   
528.000000	4.978742   
528.500000	5.066416   
529.000000	5.051234   
529.500000	5.032310   
530.000000	5.199363   
530.500000	5.835863   
531.000000	6.504424   
531.500000	6.932393   
532.000000	6.935742   
532.500000	6.759659   
533.000000	6.615772   
533.500000	6.599901   
534.000000	6.962886   
534.500000	7.501522   
535.000000	8.257310   
535.500000	8.648803   
536.000000	9.036106   
536.500000	9.034159   
537.000000	9.212462   
537.500000	9.642969   
538.000000	10.499204  
538.500000	11.411924  
539.000000	12.123651  
539.500000	12.770386  
540.000000	13.541825  
540.500000	14.161007  
541.000000	14.105325  
541.500000	13.533515  
542.000000	13.438416  
542.500000	13.811492  
543.000000	14.221393  
543.500000	14.182780  
544.000000	14.001598  
544.500000	13.489522  
545.000000	12.385386  
545.500000	11.161946  
546.000000	10.140992  
546.500000	9.600106   
547.000000	9.074113   
547.500000	8.915500   
548.000000	8.811371   
548.500000	8.691045   
549.000000	8.186446   
549.500000	7.517628   
550.000000	6.833863   
550.500000	6.234219   
551.000000	5.651749   
551.500000	4.962333   
552.000000	4.397022   
552.500000	4.026446   
553.000000	3.792431   
553.500000	3.515310   
554.000000	3.561098   
554.500000	3.673030   
555.000000	3.665901   
555.500000	3.370378   
556.000000	3.226143   
556.500000	3.224787   
557.000000	3.396863   
557.500000	3.505689   
558.000000	3.606068   
558.500000	3.367090   
559.000000	3.139484   
559.500000	3.058454   
560.000000	3.228416   
560.500000	3.321515   
561.000000	3.403856   
561.500000	3.380901   
562.000000	3.202401   
562.500000	3.049931   
563.000000	3.133856   
563.500000	3.358287   
564.000000	3.393848   
564.500000	3.190507   
565.000000	3.084893   
565.500000	3.105954   
566.000000	3.301083   
566.500000	3.437446   
567.000000	3.627068   
567.500000	3.604174   
568.000000	3.422416   
568.500000	3.149068   
569.000000	3.166840   
569.500000	3.380303   
570.000000	3.574765   
570.500000	3.573954   
571.000000	3.500128   
571.500000	3.431234   
572.000000	3.356742   
572.500000	3.257583   
573.000000	3.180560   
573.500000	3.217734   
574.000000	3.290909   
574.500000	3.381007   
575.000000	3.292863   
575.500000	3.248242   
576.000000	3.182424   
576.500000	3.174734   
577.000000	3.177886   
577.500000	3.268121   
578.000000	3.311121   
578.500000	3.194818   
579.000000	3.247371   
579.500000	3.394022   
580.000000	3.603409   
580.500000	3.495545   
581.000000	3.407295   
581.500000	3.284863   
582.000000	3.601977   
582.500000	3.880515   
583.000000	4.049022   
583.500000	3.805303   
584.000000	3.604886   
584.500000	3.501553   
585.000000	3.528242   
585.500000	3.491901   
586.000000	3.448166   
586.500000	3.585409   
587.000000	3.757378   
587.500000	3.928522   
588.000000	3.870212   
588.500000	3.642931   
589.000000	3.533401   
589.500000	3.664431   
590.000000	3.988053   
590.500000	4.205492   
591.000000	4.359545   
591.500000	4.248901   
592.000000	4.031962   
592.500000	3.831606   
593.000000	3.794083   
593.500000	3.847212   
594.000000	4.010628   
594.500000	4.322750   
595.000000	4.653871   
595.500000	4.759469   
596.000000	4.489666   
596.500000	4.315583   
597.000000	4.341446   
597.500000	4.479219   
598.000000	4.521969   
598.500000	4.701143   
599.000000	4.930750   
599.500000	5.235833   
600.000000	5.509575   
600.500000	5.633515   
601.000000	5.676068   
601.500000	5.639280   
602.000000	5.930234   
602.500000	6.094045   
603.000000	6.125681   
603.500000	5.913901   
604.000000	6.049265   
604.500000	6.360681   
605.000000	6.778666   
605.500000	6.983159   
606.000000	7.011356   
606.500000	7.071280   
607.000000	7.071878   
607.500000	7.050530   
608.000000	7.010984   
608.500000	7.324159   
609.000000	7.864946   
609.500000	8.388075   
610.000000	8.614196   
610.500000	8.912484   
611.000000	9.168575   
611.500000	9.405287   
612.000000	9.610424   
612.500000	9.925477   
613.000000	10.315492  
613.500000	10.657446  
614.000000	10.986075  
614.500000	11.189568  
615.000000	11.545113  
615.500000	11.899212  
616.000000	12.404575  
616.500000	12.780560  
617.000000	13.127151  
617.500000	13.318939  
618.000000	13.677893  
618.500000	14.158666  
619.000000	14.667795  
619.500000	15.177401  
620.000000	15.717075  
620.500000	16.347106  
621.000000	16.967257  
621.500000	17.602015  
622.000000	18.392666  
622.500000	19.229727  
623.000000	19.827863  
623.500000	20.409583  
624.000000	20.947204  
624.500000	21.820522  
625.000000	22.455174  
625.500000	22.971356  
626.000000	23.157946  
626.500000	23.766022  
627.000000	24.505106  
627.500000	25.644227  
628.000000	27.095462  
628.500000	28.918643  
629.000000	30.627856  
629.500000	31.723537  
630.000000	32.630575  
630.500000	33.574499  
631.000000	34.904613  
631.500000	36.277325  
632.000000	37.528696  
632.500000	38.482280  
633.000000	39.318416  
633.500000	40.661757  
634.000000	42.396219  
634.500000	43.937219  
635.000000	45.450901  
635.500000	47.280151  
636.000000	49.102787  
636.500000	50.121734  
637.000000	51.361507  
637.500000	53.941583  
638.000000	57.077159  
638.500000	58.915401  
639.000000	59.773106  
639.500000	61.494992  
640.000000	63.835257  
640.500000	65.850378  
641.000000	67.568787  
641.500000	69.907734  
642.000000	72.305795  
642.500000	75.190651  
643.000000	78.587704  
643.500000	82.559416  
644.000000	85.276356  
644.500000	86.866590  
645.000000	87.941121  
645.500000	89.842871  
646.000000	92.258803  
646.500000	95.425689  
647.000000	98.664272  
647.500000	101.396545 
648.000000	103.720106 
648.500000	106.087166 
649.000000	108.510363 
649.500000	110.876787 
650.000000	113.691848 
650.500000	118.116863 
651.000000	122.761371 
651.500000	126.046295 
652.000000	127.295318 
652.500000	128.856553 
653.000000	130.872931 
653.500000	134.061500 
654.000000	137.154537 
654.500000	141.717916 
655.000000	146.179325 
655.500000	150.510446 
656.000000	153.081484 
656.500000	156.020325 
657.000000	158.696196 
657.500000	161.691174 
658.000000	164.191613 
658.500000	167.575621 
659.000000	172.023818 
659.500000	176.496242 
660.000000	180.421234 
660.500000	182.976401 
661.000000	184.980545 
661.500000	186.478090 
662.000000	189.499878 
662.500000	193.400666 
663.000000	196.842727 
663.500000	199.689886 
664.000000	202.126757 
664.500000	205.777803 
665.000000	208.825909 
665.500000	212.285643 
666.000000	214.970181 
666.500000	218.847363 
667.000000	221.202674 
667.500000	222.339545 
668.000000	222.468583 
668.500000	224.656818 
669.000000	227.462954 
669.500000	229.636787 
670.000000	231.380280 
670.500000	234.363537 
671.000000	237.624704 
671.500000	239.187992 
672.000000	240.122386 
672.500000	241.120098 
673.000000	242.694469 
673.500000	243.366083 
674.000000	245.028575 
674.500000	245.907356 
675.000000	246.993045 
675.500000	246.999810 
676.000000	247.911886 
676.500000	249.245909 
677.000000	250.843212 
677.500000	250.594810 
678.000000	249.707992 
678.500000	248.527780 
679.000000	249.228765 
679.500000	251.116151 
680.000000	251.859234 
680.500000	251.255280 
681.000000	249.928840 
681.500000	249.371492 
682.000000	248.643045 
682.500000	247.648780 
683.000000	245.678893 
683.500000	244.403962 
684.000000	242.905825 
684.500000	241.801856 
685.000000	240.307628 
685.500000	237.112833 
686.000000	233.826772 
686.500000	230.230878 
687.000000	227.441621 
687.500000	224.242659 
688.000000	222.257590 
688.500000	220.754462 
689.000000	219.858030 
689.500000	217.287795 
690.000000	214.070856 
690.500000	211.378878 
691.000000	209.404553 
691.500000	206.811318 
692.000000	201.728750 
692.500000	196.113280 
693.000000	191.617992 
693.500000	188.169204 
694.000000	183.618378 
694.500000	179.131553 
695.000000	175.871863 
695.500000	172.778507 
696.000000	168.175840 
696.500000	163.202393 
697.000000	159.469227 
697.500000	156.632409 
698.000000	153.475659 
698.500000	149.772325 
699.000000	146.323439 
699.500000	142.875272 
700.000000	138.958666 
700.500000	134.639681 
701.000000	130.429196 
701.500000	126.410227 
702.000000	122.522696 
702.500000	118.486606 
703.000000	115.117439 
703.500000	112.469416 
704.000000	109.098651 
704.500000	105.203704 
705.000000	102.022628 
705.500000	99.921492  
706.000000	98.163204  
706.500000	95.375939  
707.000000	92.018075  
707.500000	88.640893  
708.000000	86.132689  
708.500000	83.314446  
709.000000	80.693613  
709.500000	77.925219  
710.000000	76.172833  
710.500000	74.400204  
711.000000	72.310431  
711.500000	70.008068  
712.000000	68.572651  
712.500000	67.663265  
713.000000	66.181477  
713.500000	63.372734  
714.000000	59.632606  
714.500000	57.282765  
715.000000	56.468310  
715.500000	56.134045  
716.000000	54.873810  
716.500000	53.382356  
717.000000	51.834454  
717.500000	50.047962  
718.000000	47.828901  
718.500000	45.478992  
719.000000	43.901250  
719.500000	42.935416  
720.000000	42.281030  
720.500000	40.948757  
721.000000	39.351780  
721.500000	38.384257  
722.000000	38.130295  
722.500000	37.117916  
723.000000	35.076431  
723.500000	32.909348  
724.000000	31.992393  
724.500000	31.786227  
725.000000	31.621833  
725.500000	30.628439  
726.000000	29.865636  
726.500000	28.761469  
727.000000	27.583598  
727.500000	26.144212  
728.000000	25.292689  
728.500000	24.866393  
729.000000	24.748484  
729.500000	24.517977  
730.000000	23.926871  
730.500000	22.704984  
731.000000	21.432007  
731.500000	20.925621  
732.000000	20.771462  
732.500000	20.160636  
733.000000	19.298484  
733.500000	18.945393  
734.000000	19.110075  
734.500000	19.440424  
735.000000	19.285007  
735.500000	18.676212  
736.000000	17.572015  
736.500000	16.651719  
737.000000	15.851787  
737.500000	15.472984  
738.000000	15.086492  
738.500000	14.727196  
739.000000	14.076984  
739.500000	13.604136  
740.000000	13.342053  
740.500000	13.608780  
741.000000	13.496962  
741.500000	13.065477  
742.000000	12.490242  
742.500000	12.229984  
743.000000	12.090287  
743.500000	11.816901  
744.000000	11.446909  
744.500000	11.086500  
745.000000	11.072696  
745.500000	10.939462  
746.000000	10.656704  
746.500000	10.121575  
747.000000	9.851136   
747.500000	10.014878  
748.000000	10.071181  
748.500000	9.640439   
749.000000	8.835727   
749.500000	8.068454   
750.000000	7.671280   
750.500000	7.739749   
751.000000	8.122287   
751.500000	8.321628   
752.000000	8.294272   
752.500000	7.984598   
753.000000	7.733803   
753.500000	7.464212   
754.000000	7.278674   
754.500000	7.230530   
755.000000	7.165446   
755.500000	7.057621   
756.000000	6.811863   
756.500000	6.638181   
757.000000	6.635560   
757.500000	6.604250   
758.000000	6.540280   
758.500000	6.436878   
759.000000	6.501984   
759.500000	6.363439   
760.000000	6.243189   
760.500000	5.985939   
761.000000	5.981606   
761.500000	5.966772   
762.000000	5.964772   
762.500000	5.987393   
763.000000	6.171287   
763.500000	6.326681   
764.000000	5.984386   
764.500000	5.087909   
765.000000	4.494696   
765.500000	4.625863   
766.000000	4.958787   
766.500000	5.014204   
767.000000	4.886151   
767.500000	4.881356   
768.000000	4.726598   
768.500000	4.633416   
769.000000	4.558303   
769.500000	4.648015   
770.000000	4.366234   
770.500000	4.077825   
771.000000	3.821757   
771.500000	3.907810   
772.000000	3.998833   
772.500000	4.225401   
773.000000	4.418727   
773.500000	4.548803   
774.000000	4.410886   
774.500000	4.301939   
775.000000	4.127272   
775.500000	3.988765   
776.000000	3.710136   
776.500000	3.567909   
777.000000	3.621787   
777.500000	3.663424   
778.000000	3.579022   
778.500000	3.382265   
779.000000	3.309113   
779.500000	3.308871   
780.000000	3.473659   
780.500000	3.496090   
781.000000	3.452378   
781.500000	3.373522   
782.000000	3.399113   
782.500000	3.363007   
783.000000	3.240090   
783.500000	3.018522   
784.000000	2.864363   
784.500000	2.744098   
785.000000	2.759219   
785.500000	2.927507   
786.000000	3.229522   
786.500000	3.401643   
787.000000	3.381128   
787.500000	3.195325   
788.000000	3.052825   
788.500000	3.021234   
789.000000	3.026439   
789.500000	3.051159   
790.000000	3.108636   
790.500000	3.095325   
791.000000	2.972500   
791.500000	2.828621   
792.000000	2.850227   
792.500000	2.874901   
793.000000	2.829113   
793.500000	2.678825   
794.000000	2.731484   
794.500000	2.810507   
795.000000	2.801765   
795.500000	2.598174   
796.000000	2.526469   
796.500000	2.539348   
797.000000	2.584522   
797.500000	2.512424   
798.000000	2.468234   
798.500000	2.327583   
799.000000	2.298151   
799.500000	2.258037   
800.000000	2.244219   
800.500000	2.057174   
801.000000	2.043712   
801.500000	2.232818   
802.000000	2.311719   
802.500000	2.035810   
803.000000	1.852212   
803.500000	2.126469   
804.000000	2.395984   
804.500000	2.353393   
805.000000	2.065727   
805.500000	1.969643   
806.000000	2.007969   
806.500000	1.979772   
807.000000	1.819621   
807.500000	1.594560   
808.000000	1.445757   
808.500000	1.481931   
809.000000	1.571757   
809.500000	1.583363   
810.000000	1.629598   
810.500000	1.779795   
811.000000	1.786992   
811.500000	1.675871   
812.000000	1.483431   
812.500000	1.620598   
813.000000	1.768886   
813.500000	1.844878   
814.000000	1.780590   
814.500000	1.778916   
815.000000	1.833803   
815.500000	1.921287   
816.000000	1.981530   
816.500000	1.820431   
817.000000	1.596075   
817.500000	1.418606   
818.000000	1.610969   
818.500000	1.866219   
819.000000	1.980401   
819.500000	1.949818   
820.000000	1.993522   
820.500000	2.112159   
821.000000	2.232553   
821.500000	2.242530   
822.000000	2.289795   
822.500000	2.216863   
823.000000	2.242121   
823.500000	2.285856   
824.000000	2.475666   
824.500000	2.632439   
825.000000	2.763765   
825.500000	2.728545   
826.000000	2.581636   
826.500000	2.378590   
827.000000	2.162583   
827.500000	2.119143   
828.000000	2.140333   
828.500000	2.098598   
829.000000	1.916545   
829.500000	1.690750   
830.000000	1.608136   
830.500000	1.442348   
831.000000	1.199431   
831.500000	1.066340   
832.000000	1.160977   
832.500000	1.298227   
833.000000	1.263977   
833.500000	1.141340   
834.000000	0.959000   
834.500000	0.919992   
835.000000	0.894969   
835.500000	1.009143   
836.000000	1.092787   
836.500000	1.157871   
837.000000	1.134924   
837.500000	1.085772   
838.000000	0.978984   
838.500000	0.768840   
839.000000	0.608780   
839.500000	0.592969   
840.000000	0.778954   
840.500000	0.831356   
841.000000	0.709090   
841.500000	0.467234   
842.000000	0.356272   
842.500000	0.347212   
843.000000	0.442590   
843.500000	0.552924   
844.000000	0.603280   
844.500000	0.489250   
845.000000	0.292946   
845.500000	0.244212   
846.000000	0.388310   
846.500000	0.528651   
847.000000	0.476560   
847.500000	0.329628   
848.000000	0.341189   
848.500000	0.506977   
849.000000	0.642090   
849.500000	0.592803   
850.000000	0.455234   
850.500000	0.363250   
851.000000	0.336727   
851.500000	0.271704   
852.000000	0.234143   
852.500000	0.326522   
853.000000	0.422446   
853.500000	0.378946   
854.000000	0.281348   
854.500000	0.272969   
855.000000	0.373469   
855.500000	0.382075   
856.000000	0.274803   
856.500000	0.119378   
857.000000	0.000886   
857.500000	-0.026666  
858.000000	0.006189   
858.500000	0.106484   
859.000000	0.127909   
859.500000	0.160575   
860.000000	0.110196   
860.500000	0.227969   
861.000000	0.279659   
861.500000	0.306227   
862.000000	0.124545   
862.500000	0.081348   
863.000000	0.081962   
863.500000	0.115371   
864.000000	-0.006803  
864.500000	-0.069136  
865.000000	-0.091780  
865.500000	-0.006250  
866.000000	0.135856   
866.500000	0.243878   
867.000000	0.214727   
867.500000	0.082159   
868.000000	-0.035181  
868.500000	-0.091454  
869.000000	-0.072659  
869.500000	0.017113   
870.000000	0.115704   
870.500000	0.120500   
871.000000	0.027901   
871.500000	-0.014984  
872.000000	-0.040022  
872.500000	-0.038098  
873.000000	-0.095212  
873.500000	-0.068204  
874.000000	0.009621   
874.500000	0.071856   
875.000000	-0.031340  
875.500000	-0.156863  
876.000000	-0.152386  
876.500000	-0.055886  
877.000000	0.040500   
877.500000	0.064363   
878.000000	0.119553   
878.500000	0.114530   
879.000000	-0.045371  
879.500000	-0.227295  
880.000000	-0.212113  
880.500000	-0.003962  
881.000000	0.142151   
881.500000	0.126871   
882.000000	0.050909   
882.500000	-0.004462  
883.000000	-0.051765  
883.500000	-0.116886  
884.000000	-0.075166  
884.500000	-0.010825  
885.000000	0.079484   
885.500000	0.101212   
886.000000	0.043575   
886.500000	-0.086386  
887.000000	-0.145727  
887.500000	-0.069492  
888.000000	0.022416   
888.500000	0.038696   
889.000000	-0.008810  
889.500000	0.000636   
890.000000	-0.002674  
890.500000	-0.062257  
891.000000	-0.159666  
891.500000	-0.153196  
892.000000	-0.088893  
892.500000	-0.033030  
893.000000	-0.026583  
893.500000	0.002424   
894.000000	0.038265   
894.500000	0.048772   
895.000000	0.036363   
895.500000	0.042901   
896.000000	0.032651   
896.500000	-0.094492  
897.000000	-0.224068  
897.500000	-0.260742  
898.000000	-0.163045  
898.500000	-0.157765  
899.000000	-0.192113  
899.500000	-0.061780  
900.000000	0.488939   
900.500000	1.336000   

