PE FL                   SPECTRUM    ASCII       PEDS        1.60        
  -1
S12R#10.SP
24/04/15
15:52:30.00
24/04/15
15:53:56.00
Jan

900.500000
1









LS55
405.00
5.00
5.00
SCAN
1
20
100
100
0
400
0
1
0
1
5
ON
900 405 
1 0 0
#HDR
-1
-1
#GR
NM

0.00002384185791015625
0.0
450.000000
0.500000
902
8
207.268848
-0.344590
#DATA
450.000000	-0.332000  
450.500000	0.011757   
451.000000	0.141825   
451.500000	0.042969   
452.000000	-0.042696  
452.500000	-0.158681  
453.000000	-0.228174  
453.500000	-0.198621  
454.000000	-0.060863  
454.500000	0.002469   
455.000000	-0.110090  
455.500000	-0.247704  
456.000000	-0.319780  
456.500000	-0.184969  
457.000000	-0.066969  
457.500000	0.013371   
458.000000	0.019734   
458.500000	0.122128   
459.000000	0.246477   
459.500000	0.306696   
460.000000	0.248560   
460.500000	0.087469   
461.000000	-0.071371  
461.500000	-0.153742  
462.000000	-0.006113  
462.500000	0.209992   
463.000000	0.256628   
463.500000	0.106484   
464.000000	-0.026780  
464.500000	-0.031022  
465.000000	0.008878   
465.500000	-0.016295  
466.000000	-0.002689  
466.500000	0.026477   
467.000000	0.057742   
467.500000	0.011196   
468.000000	-0.036340  
468.500000	-0.112712  
469.000000	-0.097439  
469.500000	-0.011098  
470.000000	0.056166   
470.500000	-0.085742  
471.000000	-0.291196  
471.500000	-0.296234  
472.000000	-0.005939  
472.500000	0.299272   
473.000000	0.416969   
473.500000	0.272560   
474.000000	0.198916   
474.500000	0.180136   
475.000000	0.144750   
475.500000	-0.126704  
476.000000	-0.344590  
476.500000	-0.327734  
477.000000	-0.111159  
477.500000	-0.025742  
478.000000	-0.032863  
478.500000	-0.085098  
479.000000	-0.122818  
479.500000	-0.168303  
480.000000	-0.108318  
480.500000	0.045204   
481.000000	0.226515   
481.500000	0.237984   
482.000000	0.163000   
482.500000	-0.022696  
483.000000	-0.033810  
483.500000	-0.030984  
484.000000	0.001015   
484.500000	-0.040227  
485.000000	0.070696   
485.500000	0.211545   
486.000000	0.328613   
486.500000	0.322818   
487.000000	0.177083   
487.500000	-0.101378  
488.000000	-0.290166  
488.500000	-0.190007  
489.000000	0.131946   
489.500000	0.190651   
490.000000	-0.037765  
490.500000	-0.273734  
491.000000	-0.165583  
491.500000	0.101863   
492.000000	0.241810   
492.500000	0.242446   
493.000000	0.212886   
493.500000	0.258287   
494.000000	0.214181   
494.500000	0.142227   
495.000000	0.133840   
495.500000	0.277318   
496.000000	0.516939   
496.500000	0.613674   
497.000000	0.559795   
497.500000	0.451954   
498.000000	0.577787   
498.500000	0.742568   
499.000000	0.798250   
499.500000	0.724439   
500.000000	0.721818   
500.500000	0.837598   
501.000000	0.894000   
501.500000	0.758909   
502.000000	0.684515   
502.500000	0.876015   
503.000000	1.152219   
503.500000	1.182348   
504.000000	0.931553   
504.500000	0.835401   
505.000000	1.020886   
505.500000	1.369454   
506.000000	1.488159   
506.500000	1.578666   
507.000000	1.698757   
507.500000	1.966121   
508.000000	2.114515   
508.500000	2.044446   
509.000000	2.019772   
509.500000	2.220568   
510.000000	2.692545   
510.500000	2.891681   
511.000000	2.832734   
511.500000	2.610734   
512.000000	2.647712   
512.500000	2.728871   
513.000000	2.734075   
513.500000	2.778371   
514.000000	3.073886   
514.500000	3.299848   
515.000000	3.309992   
515.500000	3.098924   
516.000000	3.117037   
516.500000	3.173765   
517.000000	3.224174   
517.500000	3.111015   
518.000000	3.101871   
518.500000	2.967484   
519.000000	2.853121   
519.500000	2.894787   
520.000000	3.303696   
520.500000	3.654295   
521.000000	3.650128   
521.500000	3.418196   
522.000000	3.402234   
522.500000	3.613598   
523.000000	3.764121   
523.500000	3.692378   
524.000000	3.564416   
524.500000	3.650439   
525.000000	3.828378   
525.500000	4.031477   
526.000000	4.002143   
526.500000	4.059477   
527.000000	4.087499   
527.500000	4.342886   
528.000000	4.571113   
528.500000	4.902189   
529.000000	5.166924   
529.500000	5.410681   
530.000000	5.302886   
530.500000	5.185916   
531.000000	5.373212   
531.500000	5.898954   
532.000000	6.368681   
532.500000	6.544280   
533.000000	6.742181   
533.500000	6.997825   
534.000000	7.200719   
534.500000	7.194015   
535.000000	7.399128   
535.500000	7.833386   
536.000000	8.543439   
536.500000	9.177007   
537.000000	9.601325   
537.500000	9.888598   
538.000000	10.283553  
538.500000	11.037113  
539.000000	11.858090  
539.500000	12.672962  
540.000000	13.031484  
540.500000	13.412242  
541.000000	13.614075  
541.500000	13.880507  
542.000000	13.930015  
542.500000	14.227098  
543.000000	14.430325  
543.500000	14.114833  
544.000000	12.981954  
544.500000	11.890530  
545.000000	11.337772  
545.500000	11.097280  
546.000000	10.700522  
546.500000	10.383757  
547.000000	10.048833  
547.500000	9.606250   
548.000000	8.793068   
548.500000	7.981454   
549.000000	7.041628   
549.500000	6.277833   
550.000000	5.761386   
550.500000	5.730287   
551.000000	5.751446   
551.500000	5.492068   
552.000000	4.931803   
552.500000	4.335954   
553.000000	3.928242   
553.500000	3.706530   
554.000000	3.531007   
554.500000	3.467871   
555.000000	3.521954   
555.500000	3.611106   
556.000000	3.550227   
556.500000	3.412022   
557.000000	3.180136   
557.500000	3.094401   
558.000000	3.091780   
558.500000	3.169356   
559.000000	3.272939   
559.500000	3.395583   
560.000000	3.424795   
560.500000	3.329371   
561.000000	3.126151   
561.500000	3.046696   
562.000000	2.964128   
562.500000	3.102401   
563.000000	3.361863   
563.500000	3.716007   
564.000000	3.587833   
564.500000	3.259681   
565.000000	2.992484   
565.500000	3.175750   
566.000000	3.352840   
566.500000	3.365954   
567.000000	3.155734   
567.500000	3.020507   
568.000000	2.995962   
568.500000	3.065500   
569.000000	3.122409   
569.500000	3.145893   
570.000000	3.095560   
570.500000	2.984681   
571.000000	2.925954   
571.500000	2.951136   
572.000000	3.109227   
572.500000	3.061575   
573.000000	2.903727   
573.500000	2.770348   
574.000000	3.041492   
574.500000	3.202469   
575.000000	3.159106   
575.500000	2.943340   
576.000000	3.104893   
576.500000	3.283840   
577.000000	3.317681   
577.500000	3.241181   
578.000000	3.350560   
578.500000	3.598651   
579.000000	3.845462   
579.500000	4.001227   
580.000000	3.859113   
580.500000	3.566530   
581.000000	3.273272   
581.500000	3.165181   
582.000000	3.084416   
582.500000	3.024643   
583.000000	2.968553   
583.500000	3.004757   
584.000000	3.116045   
584.500000	3.290598   
585.000000	3.429083   
585.500000	3.465075   
586.000000	3.495553   
586.500000	3.436113   
587.000000	3.321719   
587.500000	3.206689   
588.000000	3.414984   
588.500000	3.708409   
589.000000	3.857515   
589.500000	3.644371   
590.000000	3.508704   
590.500000	3.588128   
591.000000	3.829795   
591.500000	3.946901   
592.000000	3.996719   
592.500000	4.190712   
593.000000	4.442181   
593.500000	4.454348   
594.000000	4.035000   
594.500000	3.639795   
595.000000	3.513227   
595.500000	3.819484   
596.000000	4.056515   
596.500000	4.328356   
597.000000	4.413810   
597.500000	4.512515   
598.000000	4.549606   
598.500000	4.572727   
599.000000	4.639795   
599.500000	4.681371   
600.000000	4.834333   
600.500000	4.987469   
601.000000	5.419492   
601.500000	5.832537   
602.000000	6.360037   
602.500000	6.638939   
603.000000	6.898075   
603.500000	6.811333   
604.000000	6.569689   
604.500000	6.108909   
605.000000	5.974333   
605.500000	5.993484   
606.000000	6.187606   
606.500000	6.389166   
607.000000	6.618863   
607.500000	6.643310   
608.000000	6.659234   
608.500000	7.048272   
609.000000	7.794696   
609.500000	8.379984   
610.000000	8.555386   
610.500000	8.619340   
611.000000	8.870522   
611.500000	9.121053   
612.000000	9.334825   
612.500000	9.598446   
613.000000	9.877530   
613.500000	10.005234  
614.000000	10.293916  
614.500000	10.799325  
615.000000	11.363515  
615.500000	11.600287  
616.000000	11.872174  
616.500000	12.246333  
617.000000	12.572310  
617.500000	12.950348  
618.000000	13.573606  
618.500000	14.556439  
619.000000	15.163250  
619.500000	15.449303  
620.000000	15.681848  
620.500000	16.270780  
621.000000	16.822151  
621.500000	17.286833  
622.000000	17.706742  
622.500000	18.566681  
623.000000	19.536696  
623.500000	20.048583  
624.000000	20.214219  
624.500000	20.582439  
625.000000	21.294863  
625.500000	22.195719  
626.000000	23.110886  
626.500000	24.637492  
627.000000	25.945500  
627.500000	26.649068  
628.000000	26.834090  
628.500000	27.551939  
629.000000	28.496287  
629.500000	29.762500  
630.000000	31.386780  
630.500000	33.504303  
631.000000	35.242613  
631.500000	36.157121  
632.000000	37.059060  
632.500000	38.359719  
633.000000	40.057916  
633.500000	41.397734  
634.000000	42.654568  
634.500000	43.679371  
635.000000	44.745098  
635.500000	45.834007  
636.000000	47.579053  
636.500000	49.665166  
637.000000	51.657196  
637.500000	52.892409  
638.000000	53.522446  
638.500000	54.417196  
639.000000	55.919886  
639.500000	58.136787  
640.000000	60.560696  
640.500000	63.223075  
641.000000	66.136151  
641.500000	68.681363  
642.000000	70.185924  
642.500000	71.242113  
643.000000	73.388181  
643.500000	76.255333  
644.000000	79.014196  
644.500000	80.247833  
645.000000	81.976424  
645.500000	84.564212  
646.000000	87.901833  
646.500000	90.650015  
647.000000	92.666272  
647.500000	94.015969  
648.000000	95.141371  
648.500000	96.865356  
649.000000	98.817318  
649.500000	101.083098 
650.000000	103.734409 
650.500000	107.820621 
651.000000	112.043689 
651.500000	114.515818 
652.000000	115.206719 
652.500000	116.533083 
653.000000	119.254795 
653.500000	122.734189 
654.000000	124.967772 
654.500000	126.599181 
655.000000	129.042121 
655.500000	132.701893 
656.000000	136.628250 
656.500000	138.632242 
657.000000	140.156590 
657.500000	141.499196 
658.000000	144.515477 
658.500000	147.689704 
659.000000	151.839416 
659.500000	154.849765 
660.000000	157.075954 
660.500000	159.097727 
661.000000	161.469537 
661.500000	164.190075 
662.000000	166.535219 
662.500000	167.997037 
663.000000	169.745863 
663.500000	171.180878 
664.000000	173.071159 
664.500000	175.436340 
665.000000	178.031636 
665.500000	179.185886 
666.000000	178.997560 
666.500000	179.884689 
667.000000	182.906803 
667.500000	186.701954 
668.000000	188.377863 
668.500000	188.856280 
669.000000	189.729015 
669.500000	191.300909 
670.000000	193.628962 
670.500000	195.169651 
671.000000	196.825712 
671.500000	197.942681 
672.000000	199.231803 
672.500000	199.328151 
673.000000	198.615878 
673.500000	199.022121 
674.000000	201.622136 
674.500000	203.878462 
675.000000	204.148772 
675.500000	203.303136 
676.000000	204.207613 
676.500000	206.599136 
677.000000	207.268848 
677.500000	204.297303 
678.000000	200.002651 
678.500000	197.403636 
679.000000	197.707000 
679.500000	199.111765 
680.000000	199.693068 
680.500000	199.662621 
681.000000	200.629545 
681.500000	201.955325 
682.000000	201.811333 
682.500000	198.288848 
683.000000	192.861583 
683.500000	188.700000 
684.000000	186.432893 
684.500000	184.960136 
685.000000	182.904530 
685.500000	180.587363 
686.000000	178.622106 
686.500000	176.801181 
687.000000	175.537795 
687.500000	174.331969 
688.000000	173.054121 
688.500000	169.176795 
689.000000	165.231037 
689.500000	161.676340 
690.000000	160.435681 
690.500000	158.999469 
691.000000	156.542106 
691.500000	150.926000 
692.000000	144.427522 
692.500000	139.692613 
693.000000	138.059272 
693.500000	136.968075 
694.000000	133.579651 
694.500000	130.166227 
695.000000	127.774303 
695.500000	125.821939 
696.000000	122.796386 
696.500000	119.260333 
697.000000	115.645424 
697.500000	112.328621 
698.000000	109.030204 
698.500000	105.950318 
699.000000	102.486219 
699.500000	99.049075  
700.000000	96.023219  
700.500000	94.727681  
701.000000	93.659886  
701.500000	92.337037  
702.000000	89.728537  
702.500000	85.940863  
703.000000	81.633348  
703.500000	77.987166  
704.000000	75.794401  
704.500000	74.042090  
705.000000	72.259613  
705.500000	70.378151  
706.000000	69.099681  
706.500000	67.641143  
707.000000	65.213530  
707.500000	62.731719  
708.000000	60.803810  
708.500000	59.299848  
709.000000	57.732303  
709.500000	56.034787  
710.000000	54.124287  
710.500000	52.022037  
711.000000	50.355477  
711.500000	49.212333  
712.000000	47.760098  
712.500000	46.087568  
713.000000	44.553878  
713.500000	43.676113  
714.000000	42.575924  
714.500000	41.783696  
715.000000	41.424931  
715.500000	41.177734  
716.000000	40.099840  
716.500000	38.448719  
717.000000	37.138181  
717.500000	35.870628  
718.000000	34.546446  
718.500000	32.956272  
719.000000	31.719818  
719.500000	30.912878  
720.000000	30.083227  
720.500000	29.343000  
721.000000	28.260454  
721.500000	27.501848  
722.000000	26.454484  
722.500000	25.943598  
723.000000	25.413659  
723.500000	25.205916  
724.000000	24.492984  
724.500000	23.714083  
725.000000	22.783787  
725.500000	22.101992  
726.000000	21.466954  
726.500000	20.833136  
727.000000	20.112651  
727.500000	19.484909  
728.000000	18.601045  
728.500000	17.922984  
729.000000	17.609083  
729.500000	17.811234  
730.000000	17.724962  
730.500000	16.968469  
731.000000	15.903878  
731.500000	14.967098  
732.000000	14.607386  
732.500000	14.608401  
733.000000	14.995098  
733.500000	14.925303  
734.000000	14.603522  
734.500000	13.954969  
735.000000	13.592257  
735.500000	13.067492  
736.000000	12.572356  
736.500000	12.025530  
737.000000	11.860204  
737.500000	11.911863  
738.000000	12.081068  
738.500000	11.877681  
739.000000	11.167772  
739.500000	10.470393  
740.000000	10.242924  
740.500000	10.268628  
741.000000	10.037674  
741.500000	9.527992   
742.000000	9.341227   
742.500000	9.497696   
743.000000	9.736159   
743.500000	9.480939   
744.000000	8.900484   
744.500000	8.433825   
745.000000	8.358901   
745.500000	8.442424   
746.000000	8.308196   
746.500000	7.869000   
747.000000	7.430219   
747.500000	7.201795   
748.000000	7.200946   
748.500000	7.223712   
749.000000	7.241227   
749.500000	7.165484   
750.000000	7.149954   
750.500000	7.037712   
751.000000	6.843439   
751.500000	6.631136   
752.000000	6.637696   
752.500000	6.653696   
753.000000	6.692962   
753.500000	6.592431   
754.000000	6.363613   
754.500000	5.912659   
755.000000	5.605795   
755.500000	5.664689   
756.000000	5.843500   
756.500000	5.798272   
757.000000	5.492689   
757.500000	5.339666   
758.000000	5.263992   
758.500000	5.288393   
759.000000	5.385651   
759.500000	5.495424   
760.000000	5.368818   
760.500000	4.940992   
761.000000	4.533515   
761.500000	4.362083   
762.000000	4.555068   
762.500000	4.638030   
763.000000	4.619727   
763.500000	4.339098   
764.000000	4.272265   
764.500000	4.307348   
765.000000	4.642992   
765.500000	4.839742   
766.000000	4.930356   
766.500000	4.792530   
767.000000	4.553643   
767.500000	4.215249   
768.000000	3.891583   
768.500000	3.835734   
769.000000	4.205484   
769.500000	4.576196   
770.000000	4.482583   
770.500000	4.062106   
771.000000	3.672106   
771.500000	3.633719   
772.000000	3.724439   
772.500000	3.805318   
773.000000	3.705280   
773.500000	3.505106   
774.000000	3.065734   
774.500000	3.004250   
775.000000	3.185030   
775.500000	3.435037   
776.000000	3.285825   
776.500000	3.099431   
777.000000	3.043712   
777.500000	3.184984   
778.000000	3.248954   
778.500000	3.284984   
779.000000	3.313856   
779.500000	3.297113   
780.000000	3.124704   
780.500000	3.016704   
781.000000	3.031166   
781.500000	3.162318   
782.000000	3.144787   
782.500000	3.095931   
783.000000	3.059015   
783.500000	3.154515   
784.000000	3.131969   
784.500000	3.070742   
785.000000	3.011219   
785.500000	2.951651   
786.000000	2.872734   
786.500000	2.897325   
787.000000	3.030083   
787.500000	3.164734   
788.000000	3.167530   
788.500000	3.080242   
789.000000	2.960090   
789.500000	2.886106   
790.000000	2.876977   
790.500000	2.901962   
791.000000	2.842886   
791.500000	2.739143   
792.000000	2.699871   
792.500000	2.572143   
793.000000	2.300886   
793.500000	2.027204   
794.000000	2.031181   
794.500000	2.297356   
795.000000	2.632037   
795.500000	2.897545   
796.000000	2.895090   
796.500000	2.639924   
797.000000	2.253045   
797.500000	2.157568   
798.000000	2.222204   
798.500000	2.308659   
799.000000	2.122356   
799.500000	1.942348   
800.000000	1.755659   
800.500000	1.871689   
801.000000	2.045363   
801.500000	2.324030   
802.000000	2.260356   
802.500000	2.303106   
803.000000	2.218734   
803.500000	2.252643   
804.000000	2.070053   
804.500000	2.019159   
805.000000	1.999325   
805.500000	2.128416   
806.000000	2.106477   
806.500000	2.080719   
807.000000	1.932204   
807.500000	1.849765   
808.000000	1.847621   
808.500000	2.033674   
809.000000	2.084568   
809.500000	2.030507   
810.000000	1.818310   
810.500000	1.693977   
811.000000	1.541075   
811.500000	1.379954   
812.000000	1.301750   
812.500000	1.392901   
813.000000	1.600689   
813.500000	1.713871   
814.000000	1.736227   
814.500000	1.738590   
815.000000	1.796810   
815.500000	1.883954   
816.000000	1.798969   
816.500000	1.595015   
817.000000	1.306530   
817.500000	1.323553   
818.000000	1.554439   
818.500000	1.756901   
819.000000	1.680977   
819.500000	1.536174   
820.000000	1.639568   
820.500000	1.871954   
821.000000	2.093734   
821.500000	2.159325   
822.000000	2.386431   
822.500000	2.644621   
823.000000	2.740121   
823.500000	2.592280   
824.000000	2.432530   
824.500000	2.361704   
825.000000	2.351280   
825.500000	2.316075   
826.000000	2.181659   
826.500000	2.148287   
827.000000	2.196643   
827.500000	2.334242   
828.000000	2.231795   
828.500000	1.988424   
829.000000	1.643969   
829.500000	1.463734   
830.000000	1.237666   
830.500000	1.321053   
831.000000	1.507015   
831.500000	1.660825   
832.000000	1.434484   
832.500000	1.197666   
833.000000	1.115446   
833.500000	1.219659   
834.000000	1.222500   
834.500000	1.164583   
835.000000	1.117772   
835.500000	1.146454   
836.000000	1.216469   
836.500000	1.294568   
837.000000	1.316234   
837.500000	1.341946   
838.000000	1.248765   
838.500000	1.191159   
839.000000	1.109242   
839.500000	1.047522   
840.000000	0.833515   
840.500000	0.664780   
841.000000	0.602484   
841.500000	0.752136   
842.000000	0.812136   
842.500000	0.698000   
843.000000	0.496795   
843.500000	0.404204   
844.000000	0.349151   
844.500000	0.350719   
845.000000	0.375280   
845.500000	0.446128   
846.000000	0.399833   
846.500000	0.264871   
847.000000	0.204606   
847.500000	0.298060   
848.000000	0.402393   
848.500000	0.372856   
849.000000	0.213750   
849.500000	0.081393   
850.000000	0.192643   
850.500000	0.384962   
851.000000	0.438750   
851.500000	0.287651   
852.000000	0.122780   
852.500000	0.133530   
853.000000	0.209893   
853.500000	0.291856   
854.000000	0.218204   
854.500000	0.073628   
855.000000	-0.051098  
855.500000	0.108643   
856.000000	0.321469   
856.500000	0.402977   
857.000000	0.217371   
857.500000	0.012666   
858.000000	-0.069719  
858.500000	-0.062575  
859.000000	-0.100090  
859.500000	-0.092045  
860.000000	0.001515   
860.500000	0.077712   
861.000000	0.039310   
861.500000	-0.037477  
862.000000	-0.057469  
862.500000	0.014037   
863.000000	0.025765   
863.500000	0.054696   
864.000000	0.118151   
864.500000	0.203310   
865.000000	0.156424   
865.500000	0.078196   
866.000000	0.047371   
866.500000	0.066159   
867.000000	0.032356   
867.500000	-0.023166  
868.000000	0.035378   
868.500000	0.059098   
869.000000	-0.030909  
869.500000	-0.206159  
870.000000	-0.242507  
870.500000	-0.113696  
871.000000	0.059977   
871.500000	0.121863   
872.000000	0.055795   
872.500000	-0.044060  
873.000000	-0.047643  
873.500000	0.034803   
874.000000	0.085666   
874.500000	0.081310   
875.000000	0.069227   
875.500000	0.113227   
876.000000	0.183583   
876.500000	0.181568   
877.000000	0.035075   
877.500000	-0.149333  
878.000000	-0.261537  
878.500000	-0.196901  
879.000000	-0.106272  
879.500000	-0.113234  
880.000000	-0.245378  
880.500000	-0.267257  
881.000000	-0.151500  
881.500000	0.001431   
882.000000	-0.000053  
882.500000	-0.003295  
883.000000	0.047151   
883.500000	0.077946   
884.000000	-0.062893  
884.500000	-0.143810  
885.000000	-0.082765  
885.500000	0.047712   
886.000000	0.092871   
886.500000	0.046060   
887.000000	-0.013992  
887.500000	-0.116363  
888.000000	-0.215030  
888.500000	-0.194537  
889.000000	0.009469   
889.500000	0.194098   
890.000000	0.182234   
890.500000	0.048037   
891.000000	-0.068462  
891.500000	-0.005674  
892.000000	0.022962   
892.500000	-0.043931  
893.000000	-0.196909  
893.500000	-0.233909  
894.000000	-0.178765  
894.500000	-0.035522  
895.000000	0.028128   
895.500000	0.017075   
896.000000	-0.037886  
896.500000	-0.038227  
897.000000	-0.018363  
897.500000	0.014356   
898.000000	-0.029037  
898.500000	-0.139575  
899.000000	-0.238409  
899.500000	-0.188128  
900.000000	0.133924   
900.500000	0.667000   

