PE FL                   SPECTRUM    ASCII       PEDS        1.60        
  -1
S12R#17.SP
24/04/15
16:02:29.00
24/04/15
16:03:55.00
Jan

900.500000
1









LS55
405.00
5.00
5.00
SCAN
1
20
100
100
0
400
0
1
0
1
5
ON
900 405 
1 0 0
#HDR
-1
-1
#GR
NM

0.00002384185791015625
0.0
450.000000
0.500000
902
8
182.068356
-0.357007
#DATA
450.000000	0.065000   
450.500000	-0.123295  
451.000000	-0.212310  
451.500000	-0.207909  
452.000000	-0.069068  
452.500000	0.079719   
453.000000	0.218795   
453.500000	0.195196   
454.000000	0.106340   
454.500000	0.047659   
455.000000	-0.004553  
455.500000	-0.091575  
456.000000	-0.235265  
456.500000	-0.270204  
457.000000	-0.151560  
457.500000	0.042515   
458.000000	0.138878   
458.500000	0.103310   
459.000000	0.016022   
459.500000	0.007371   
460.000000	0.104689   
460.500000	0.256295   
461.000000	0.318151   
461.500000	0.270060   
462.000000	0.036522   
462.500000	-0.120212  
463.000000	-0.101136  
463.500000	0.089780   
464.000000	0.121257   
464.500000	-0.072030  
465.000000	-0.299416  
465.500000	-0.344000  
466.000000	-0.288015  
466.500000	-0.192795  
467.000000	-0.075431  
467.500000	0.017893   
468.000000	-0.005378  
468.500000	-0.058742  
469.000000	-0.128348  
469.500000	-0.225681  
470.000000	-0.316553  
470.500000	-0.187015  
471.000000	0.093333   
471.500000	0.179318   
472.000000	-0.026280  
472.500000	-0.268666  
473.000000	-0.222083  
473.500000	-0.034174  
474.000000	0.095507   
474.500000	0.160681   
475.000000	0.229272   
475.500000	0.270863   
476.000000	0.168500   
476.500000	0.054128   
477.000000	0.022833   
477.500000	0.160590   
478.000000	0.210674   
478.500000	0.210575   
479.000000	0.042621   
479.500000	-0.134515  
480.000000	-0.265250  
480.500000	-0.281909  
481.000000	-0.197780  
481.500000	-0.062053  
482.000000	0.090174   
482.500000	-0.004053  
483.000000	-0.180106  
483.500000	-0.339689  
484.000000	-0.224068  
484.500000	-0.082234  
485.000000	0.044090   
485.500000	0.092772   
486.000000	0.159348   
486.500000	0.152037   
487.000000	0.051439   
487.500000	-0.082393  
488.000000	-0.161212  
488.500000	-0.094128  
489.000000	0.025030   
489.500000	0.066340   
490.000000	0.075113   
490.500000	0.142219   
491.000000	0.230590   
491.500000	0.176068   
492.000000	0.023113   
492.500000	-0.043068  
493.000000	0.143257   
493.500000	0.332734   
494.000000	0.441560   
494.500000	0.392606   
495.000000	0.314818   
495.500000	0.179333   
496.000000	0.131053   
496.500000	0.256750   
497.000000	0.536022   
497.500000	0.642265   
498.000000	0.630651   
498.500000	0.563136   
499.000000	0.575090   
499.500000	0.565219   
500.000000	0.582666   
500.500000	0.584356   
501.000000	0.642696   
501.500000	0.689265   
502.000000	0.820090   
502.500000	0.988939   
503.000000	1.030030   
503.500000	1.035181   
504.000000	1.026090   
504.500000	1.217901   
505.000000	1.437015   
505.500000	1.717712   
506.000000	1.735378   
506.500000	1.630363   
507.000000	1.373575   
507.500000	1.414689   
508.000000	1.694545   
508.500000	2.168121   
509.000000	2.471916   
509.500000	2.570833   
510.000000	2.559795   
510.500000	2.608863   
511.000000	2.779113   
511.500000	2.901053   
512.000000	2.902757   
512.500000	2.842689   
513.000000	2.909613   
513.500000	2.995522   
514.000000	3.122424   
514.500000	3.143727   
515.000000	3.081924   
515.500000	2.985098   
516.000000	3.036424   
516.500000	3.179022   
517.000000	3.402659   
517.500000	3.478848   
518.000000	3.449083   
518.500000	3.325174   
519.000000	3.262924   
519.500000	3.286825   
520.000000	3.305295   
520.500000	3.267696   
521.000000	3.128621   
521.500000	3.073969   
522.000000	2.969727   
522.500000	3.320174   
523.000000	3.636075   
523.500000	3.765742   
524.000000	3.592643   
524.500000	3.632727   
525.000000	3.877810   
525.500000	4.192568   
526.000000	4.252386   
526.500000	4.306227   
527.000000	4.469348   
527.500000	4.822409   
528.000000	5.220787   
528.500000	5.466196   
529.000000	5.256045   
529.500000	5.041090   
530.000000	4.888280   
530.500000	5.003303   
531.000000	5.229159   
531.500000	5.579696   
532.000000	6.096992   
532.500000	6.645742   
533.000000	6.977681   
533.500000	6.966462   
534.000000	7.057265   
534.500000	7.323659   
535.000000	7.726621   
535.500000	7.847015   
536.000000	8.121484   
536.500000	8.715378   
537.000000	9.352916   
537.500000	9.782734   
538.000000	10.325575  
538.500000	11.230984  
539.000000	11.991628  
539.500000	12.328825  
540.000000	12.633583  
540.500000	13.052553  
541.000000	13.613409  
541.500000	13.921166  
542.000000	14.290431  
542.500000	14.362848  
543.000000	14.135628  
543.500000	13.549810  
544.000000	13.257787  
544.500000	12.868098  
545.000000	12.368719  
545.500000	11.536787  
546.000000	10.926272  
546.500000	10.112128  
547.000000	9.444469   
547.500000	8.588356   
548.000000	8.102522   
548.500000	7.408386   
549.000000	6.964818   
549.500000	6.625219   
550.000000	6.401083   
550.500000	5.854401   
551.000000	5.341606   
551.500000	4.971583   
552.000000	4.578159   
552.500000	4.007924   
553.000000	3.585537   
553.500000	3.431212   
554.000000	3.342833   
554.500000	3.234681   
555.000000	3.346757   
555.500000	3.641090   
556.000000	3.772492   
556.500000	3.582939   
557.000000	3.370303   
557.500000	3.249984   
558.000000	3.125803   
558.500000	2.922310   
559.000000	2.896242   
559.500000	3.021098   
560.000000	3.110553   
560.500000	3.080810   
561.000000	3.037931   
561.500000	3.050825   
562.000000	3.066401   
562.500000	3.139840   
563.000000	3.266424   
563.500000	3.263583   
564.000000	3.139363   
564.500000	3.019242   
565.000000	3.130356   
565.500000	3.172257   
566.000000	3.148545   
566.500000	3.012833   
567.000000	3.048946   
567.500000	3.126477   
568.000000	3.199159   
568.500000	3.171598   
569.000000	3.154401   
569.500000	3.167333   
570.000000	3.232333   
570.500000	3.351212   
571.000000	3.360060   
571.500000	3.258136   
572.000000	2.981363   
572.500000	2.934606   
573.000000	3.092075   
573.500000	3.397856   
574.000000	3.381219   
574.500000	3.340560   
575.000000	3.293469   
575.500000	3.392310   
576.000000	3.425083   
576.500000	3.611492   
577.000000	3.815174   
577.500000	3.885166   
578.000000	3.638363   
578.500000	3.359462   
579.000000	3.143840   
579.500000	2.980939   
580.000000	2.774530   
580.500000	2.834348   
581.000000	3.075446   
581.500000	3.347280   
582.000000	3.368196   
582.500000	3.166704   
583.000000	3.196234   
583.500000	3.433090   
584.000000	3.632916   
584.500000	3.466825   
585.000000	3.319787   
585.500000	3.255734   
586.000000	3.435734   
586.500000	3.552280   
587.000000	3.750522   
587.500000	3.961757   
588.000000	4.142856   
588.500000	4.005128   
589.000000	3.864742   
589.500000	3.774068   
590.000000	3.903249   
590.500000	3.921696   
591.000000	3.901863   
591.500000	3.847439   
592.000000	3.931689   
592.500000	4.083507   
593.000000	4.266492   
593.500000	4.402068   
594.000000	4.202462   
594.500000	4.116075   
595.000000	4.362840   
595.500000	4.911265   
596.000000	4.978393   
596.500000	4.665757   
597.000000	4.314696   
597.500000	4.366022   
598.000000	4.345651   
598.500000	4.218310   
599.000000	4.142015   
599.500000	4.579522   
600.000000	5.274954   
600.500000	5.862098   
601.000000	5.913643   
601.500000	5.605575   
602.000000	5.184295   
602.500000	5.140295   
603.000000	5.501765   
603.500000	5.998015   
604.000000	6.166515   
604.500000	6.365893   
605.000000	6.499590   
605.500000	6.702893   
606.000000	6.755386   
606.500000	6.883053   
607.000000	7.091522   
607.500000	7.221598   
608.000000	7.452416   
608.500000	7.772007   
609.000000	8.051977   
609.500000	7.982810   
610.000000	8.140030   
610.500000	8.749598   
611.000000	9.417878   
611.500000	9.710303   
612.000000	9.454871   
612.500000	9.453712   
613.000000	9.868371   
613.500000	10.606386  
614.000000	11.010234  
614.500000	11.211598  
615.000000	11.412272  
615.500000	11.692287  
616.000000	11.801439  
616.500000	11.799704  
617.000000	12.103310  
617.500000	12.736780  
618.000000	13.580053  
618.500000	14.417234  
619.000000	15.290212  
619.500000	15.808333  
620.000000	16.305227  
620.500000	16.724371  
621.000000	17.409401  
621.500000	17.916386  
622.000000	18.241098  
622.500000	18.420530  
623.000000	18.896863  
623.500000	19.673098  
624.000000	20.679090  
624.500000	21.708886  
625.000000	22.679234  
625.500000	23.635749  
626.000000	24.161931  
626.500000	24.621037  
627.000000	25.387606  
627.500000	26.605333  
628.000000	27.762037  
628.500000	28.772954  
629.000000	29.544045  
629.500000	30.516310  
630.000000	32.006113  
630.500000	33.407878  
631.000000	34.541037  
631.500000	34.957984  
632.000000	35.764863  
632.500000	36.811348  
633.000000	38.183696  
633.500000	39.494810  
634.000000	41.345689  
634.500000	43.501371  
635.000000	45.311545  
635.500000	46.769681  
636.000000	47.271530  
636.500000	47.963871  
637.000000	48.927371  
637.500000	51.197446  
638.000000	53.428742  
638.500000	55.613333  
639.000000	56.911272  
639.500000	58.518515  
640.000000	60.339159  
640.500000	62.572689  
641.000000	64.225454  
641.500000	65.547742  
642.000000	67.489636  
642.500000	70.132325  
643.000000	72.472954  
643.500000	73.454909  
644.000000	74.484507  
644.500000	75.880924  
645.000000	78.224833  
645.500000	80.794840  
646.000000	83.910363  
646.500000	85.965356  
647.000000	87.179431  
647.500000	88.969878  
648.000000	91.962863  
648.500000	94.756325  
649.000000	96.388969  
649.500000	98.049227  
650.000000	100.621416 
650.500000	103.969431 
651.000000	107.203053 
651.500000	110.304780 
652.000000	112.730780 
652.500000	113.954484 
653.000000	114.477022 
653.500000	115.355848 
654.000000	117.450931 
654.500000	121.404553 
655.000000	125.845484 
655.500000	129.154590 
656.000000	130.735431 
656.500000	132.467090 
657.000000	134.526598 
657.500000	136.632492 
658.000000	138.391893 
658.500000	140.712530 
659.000000	143.301901 
659.500000	145.034757 
660.000000	145.835462 
660.500000	146.565106 
661.000000	148.092537 
661.500000	150.407848 
662.000000	153.402333 
662.500000	155.435181 
663.000000	156.176386 
663.500000	157.283469 
664.000000	160.658234 
664.500000	164.097598 
665.000000	166.139386 
665.500000	166.767742 
666.000000	167.704916 
666.500000	168.829628 
667.000000	169.715227 
667.500000	170.477689 
668.000000	171.212189 
668.500000	172.604151 
669.000000	174.109325 
669.500000	176.253287 
670.000000	176.638128 
670.500000	177.310280 
671.000000	178.242886 
671.500000	179.926280 
672.000000	179.632113 
672.500000	179.231553 
673.000000	179.888825 
673.500000	181.976628 
674.000000	182.068356 
674.500000	181.317250 
675.000000	180.922924 
675.500000	181.132992 
676.000000	180.292992 
676.500000	180.164962 
677.000000	180.875742 
677.500000	181.362030 
678.000000	178.946553 
678.500000	177.597325 
679.000000	177.193803 
679.500000	177.034340 
680.000000	174.906628 
680.500000	173.358984 
681.000000	171.972053 
681.500000	171.623356 
682.000000	171.018083 
682.500000	170.058462 
683.000000	168.262106 
683.500000	165.528727 
684.000000	163.877651 
684.500000	161.603484 
685.000000	159.084560 
685.500000	155.957840 
686.000000	154.517530 
686.500000	153.359227 
687.000000	151.891795 
687.500000	149.036848 
688.000000	145.552121 
688.500000	143.066765 
689.000000	141.244393 
689.500000	139.692363 
690.000000	136.973340 
690.500000	134.158636 
691.000000	130.850613 
691.500000	127.654962 
692.000000	124.386227 
692.500000	121.652856 
693.000000	118.957431 
693.500000	115.930378 
694.000000	112.303909 
694.500000	109.534651 
695.000000	107.650181 
695.500000	106.102916 
696.000000	103.501151 
696.500000	99.995242  
697.000000	96.642818  
697.500000	93.977037  
698.000000	91.804219  
698.500000	89.451750  
699.000000	87.389424  
699.500000	85.275159  
700.000000	82.662893  
700.500000	80.117045  
701.000000	77.724560  
701.500000	75.813727  
702.000000	72.919340  
702.500000	70.053962  
703.000000	67.510530  
703.500000	66.605431  
704.000000	65.840810  
704.500000	63.922984  
705.000000	61.165954  
705.500000	58.416219  
706.000000	57.048045  
706.500000	55.345545  
707.000000	53.756689  
707.500000	51.910568  
708.000000	50.830265  
708.500000	49.436856  
709.000000	48.110303  
709.500000	46.647083  
710.000000	44.954825  
710.500000	43.013666  
711.000000	41.814818  
711.500000	41.286810  
712.000000	41.078795  
712.500000	40.211515  
713.000000	39.160219  
713.500000	37.587590  
714.000000	36.260075  
714.500000	35.103727  
715.000000	34.473219  
715.500000	33.968954  
716.000000	33.333689  
716.500000	32.155810  
717.000000	30.548727  
717.500000	28.877848  
718.000000	27.602977  
718.500000	27.028871  
719.000000	26.724863  
719.500000	26.171227  
720.000000	25.606075  
720.500000	24.733553  
721.000000	24.021598  
721.500000	23.217666  
722.000000	22.635636  
722.500000	21.807689  
723.000000	21.367969  
723.500000	20.944598  
724.000000	20.892310  
724.500000	20.184613  
725.000000	19.471704  
725.500000	18.967136  
726.000000	18.700560  
726.500000	17.944227  
727.000000	17.156348  
727.500000	16.571295  
728.000000	16.223780  
728.500000	15.887090  
729.000000	15.681689  
729.500000	15.653666  
730.000000	15.385742  
730.500000	14.779537  
731.000000	13.897318  
731.500000	13.358871  
732.000000	13.216439  
732.500000	13.346613  
733.000000	13.206636  
733.500000	12.696765  
734.000000	12.029477  
734.500000	11.452916  
735.000000	11.129227  
735.500000	11.189409  
736.000000	11.326280  
736.500000	11.125901  
737.000000	10.621409  
737.500000	10.344977  
738.000000	10.197833  
738.500000	10.108181  
739.000000	9.919492   
739.500000	9.968583   
740.000000	9.750401   
740.500000	9.349674   
741.000000	8.959848   
741.500000	8.893356   
742.000000	8.785416   
742.500000	8.736439   
743.000000	8.543833   
743.500000	8.295015   
744.000000	8.075787   
744.500000	8.187204   
745.000000	8.223886   
745.500000	7.812151   
746.000000	7.110946   
746.500000	6.831787   
747.000000	7.063590   
747.500000	7.270477   
748.000000	7.305833   
748.500000	7.099878   
749.000000	6.873280   
749.500000	6.520606   
750.000000	6.188507   
750.500000	6.141810   
751.000000	6.308053   
751.500000	6.376333   
752.000000	6.094363   
752.500000	5.754174   
753.000000	5.605689   
753.500000	5.651803   
754.000000	5.781189   
754.500000	5.663424   
755.000000	5.671325   
755.500000	5.657659   
756.000000	5.974863   
756.500000	5.791393   
757.000000	5.418068   
757.500000	4.832295   
758.000000	4.861287   
758.500000	4.824712   
759.000000	4.775719   
759.500000	4.408568   
760.000000	4.412962   
760.500000	4.382196   
761.000000	4.443946   
761.500000	4.322333   
762.000000	4.438340   
762.500000	4.465075   
763.000000	4.554749   
763.500000	4.433030   
764.000000	4.351068   
764.500000	4.157280   
765.000000	4.112939   
765.500000	3.972386   
766.000000	3.895772   
766.500000	3.888166   
767.000000	4.150030   
767.500000	4.450257   
768.000000	4.444962   
768.500000	4.226803   
769.000000	3.866878   
769.500000	3.674780   
770.000000	3.497871   
770.500000	3.677727   
771.000000	3.748136   
771.500000	3.761909   
772.000000	3.418621   
772.500000	3.132037   
773.000000	3.002583   
773.500000	3.179477   
774.000000	3.304000   
774.500000	3.337992   
775.000000	3.276401   
775.500000	3.145469   
776.000000	3.056674   
776.500000	3.122340   
777.000000	3.299962   
777.500000	3.354878   
778.000000	3.177363   
778.500000	2.935863   
779.000000	2.914590   
779.500000	3.068666   
780.000000	3.247045   
780.500000	3.325628   
781.000000	3.279090   
781.500000	3.168795   
782.000000	3.131416   
782.500000	3.161075   
783.000000	3.119159   
783.500000	3.017037   
784.000000	2.858424   
784.500000	2.683060   
785.000000	2.569196   
785.500000	2.568560   
786.000000	2.725992   
786.500000	2.891022   
787.000000	2.928984   
787.500000	2.727568   
788.000000	2.483969   
788.500000	2.323454   
789.000000	2.356643   
789.500000	2.368333   
790.000000	2.350621   
790.500000	2.405560   
791.000000	2.677924   
791.500000	2.941787   
792.000000	2.966818   
792.500000	2.616643   
793.000000	2.260159   
793.500000	2.197310   
794.000000	2.363666   
794.500000	2.513818   
795.000000	2.615068   
795.500000	2.762257   
796.000000	2.794992   
796.500000	2.677757   
797.000000	2.481500   
797.500000	2.387772   
798.000000	2.287030   
798.500000	2.237765   
799.000000	2.214939   
799.500000	2.331696   
800.000000	2.343553   
800.500000	2.281272   
801.000000	2.039469   
801.500000	1.931545   
802.000000	1.933143   
802.500000	2.061462   
803.000000	2.063795   
803.500000	1.977848   
804.000000	2.012409   
804.500000	2.053037   
805.000000	2.134363   
805.500000	1.988946   
806.000000	1.906340   
806.500000	1.904128   
807.000000	1.980537   
807.500000	1.821234   
808.000000	1.550333   
808.500000	1.456462   
809.000000	1.603174   
809.500000	1.732310   
810.000000	1.719401   
810.500000	1.576446   
811.000000	1.590227   
811.500000	1.651568   
812.000000	1.809613   
812.500000	1.770613   
813.000000	1.771856   
813.500000	1.808946   
814.000000	1.844840   
814.500000	1.790871   
815.000000	1.659060   
815.500000	1.557371   
816.000000	1.342984   
816.500000	1.113469   
817.000000	1.020022   
817.500000	1.190000   
818.000000	1.493643   
818.500000	1.609060   
819.000000	1.657007   
819.500000	1.717181   
820.000000	1.914931   
820.500000	2.022325   
821.000000	2.193568   
821.500000	2.409560   
822.000000	2.674257   
822.500000	2.586128   
823.000000	2.439280   
823.500000	2.301962   
824.000000	2.394106   
824.500000	2.477893   
825.000000	2.551280   
825.500000	2.441954   
826.000000	2.271643   
826.500000	2.174803   
827.000000	2.118909   
827.500000	2.065500   
828.000000	1.773962   
828.500000	1.660992   
829.000000	1.627174   
829.500000	1.757537   
830.000000	1.671840   
830.500000	1.461272   
831.000000	1.193946   
831.500000	1.199689   
832.000000	1.333340   
832.500000	1.436098   
833.000000	1.350712   
833.500000	1.180666   
834.000000	1.072431   
834.500000	1.089000   
835.000000	1.142386   
835.500000	1.160469   
836.000000	1.120984   
836.500000	1.098628   
837.000000	1.077250   
837.500000	0.955181   
838.000000	0.717893   
838.500000	0.579795   
839.000000	0.624825   
839.500000	0.792295   
840.000000	0.930810   
840.500000	1.012363   
841.000000	1.036954   
841.500000	0.978356   
842.000000	0.842378   
842.500000	0.800840   
843.000000	0.767113   
843.500000	0.636833   
844.000000	0.429727   
844.500000	0.270772   
845.000000	0.174643   
845.500000	0.144681   
846.000000	0.114143   
846.500000	0.257681   
847.000000	0.389333   
847.500000	0.411272   
848.000000	0.229257   
848.500000	0.050356   
849.000000	-0.059439  
849.500000	0.022257   
850.000000	0.177621   
850.500000	0.334886   
851.000000	0.369553   
851.500000	0.211128   
852.000000	0.048840   
852.500000	-0.049909  
853.000000	0.011363   
853.500000	0.097530   
854.000000	0.214378   
854.500000	0.203174   
855.000000	0.115151   
855.500000	-0.028893  
856.000000	0.001613   
856.500000	0.075530   
857.000000	0.146257   
857.500000	0.172689   
858.000000	0.156954   
858.500000	0.103280   
859.000000	0.055083   
859.500000	0.087492   
860.000000	0.108356   
860.500000	0.047174   
861.000000	-0.080371  
861.500000	-0.113568  
862.000000	-0.023409  
862.500000	0.060560   
863.000000	0.125939   
863.500000	0.161757   
864.000000	0.217121   
864.500000	0.151007   
865.000000	0.010787   
865.500000	-0.068310  
866.000000	-0.041439  
866.500000	-0.062674  
867.000000	-0.127325  
867.500000	-0.126621  
868.000000	-0.004090  
868.500000	0.112575   
869.000000	0.097689   
869.500000	-0.022643  
870.000000	-0.102757  
870.500000	-0.019295  
871.000000	0.188121   
871.500000	0.407363   
872.000000	0.465416   
872.500000	0.375303   
873.000000	0.166568   
873.500000	0.051924   
874.000000	0.001098   
874.500000	0.112151   
875.000000	0.166613   
875.500000	0.214818   
876.000000	0.090749   
876.500000	-0.077939  
877.000000	-0.222719  
877.500000	-0.173340  
878.000000	-0.102151  
878.500000	-0.050219  
879.000000	-0.132068  
879.500000	-0.219696  
880.000000	-0.334469  
880.500000	-0.357007  
881.000000	-0.296242  
881.500000	-0.050742  
882.000000	0.060090   
882.500000	0.046484   
883.000000	-0.066575  
883.500000	-0.081909  
884.000000	-0.015962  
884.500000	0.015787   
885.000000	0.009022   
885.500000	-0.062340  
886.000000	-0.069212  
886.500000	-0.080613  
887.000000	-0.040939  
887.500000	-0.027280  
888.000000	0.001659   
888.500000	0.009946   
889.000000	0.058545   
889.500000	0.134196   
890.000000	0.171037   
890.500000	0.139340   
891.000000	0.044393   
891.500000	-0.071681  
892.000000	-0.165643  
892.500000	-0.113621  
893.000000	0.061757   
893.500000	0.118522   
894.000000	-0.016348  
894.500000	-0.151825  
895.000000	-0.097969  
895.500000	0.034098   
896.000000	0.080090   
896.500000	0.104704   
897.000000	0.094401   
897.500000	0.043606   
898.000000	-0.074590  
898.500000	-0.191166  
899.000000	-0.286606  
899.500000	-0.238787  
900.000000	0.009310   
900.500000	0.504000   

