PE FL                   SPECTRUM    ASCII       PEDS        1.60        
  -1
S12R#23.SP
24/04/15
16:11:03.00
24/04/15
16:12:28.00
Jan

900.500000
1









LS55
405.00
5.00
5.00
SCAN
1
20
100
100
0
400
0
1
0
1
5
ON
900 405 
1 0 0
#HDR
-1
-1
#GR
NM

0.00002384185791015625
0.0
450.000000
0.500000
902
8
178.729734
-0.901999
#DATA
450.000000	0.167000   
450.500000	0.091507   
451.000000	-0.119484  
451.500000	-0.160689  
452.000000	-0.031280  
452.500000	0.101469   
453.000000	-0.082477  
453.500000	-0.278030  
454.000000	-0.314909  
454.500000	-0.072469  
455.000000	0.197348   
455.500000	0.355333   
456.000000	0.212007   
456.500000	-0.109537  
457.000000	-0.355363  
457.500000	-0.291250  
458.000000	-0.089606  
458.500000	0.141659   
459.000000	0.157196   
459.500000	-0.074015  
460.000000	-0.301000  
460.500000	-0.328856  
461.000000	-0.193500  
461.500000	-0.182818  
462.000000	-0.222530  
462.500000	-0.181674  
463.000000	-0.047318  
463.500000	0.020621   
464.000000	0.148181   
464.500000	0.289477   
465.000000	0.244795   
465.500000	0.011704   
466.000000	-0.166924  
466.500000	-0.136984  
467.000000	-0.036848  
467.500000	-0.080196  
468.000000	-0.140053  
468.500000	-0.115916  
469.000000	0.005484   
469.500000	0.134590   
470.000000	0.138356   
470.500000	0.137848   
471.000000	0.168204   
471.500000	0.153295   
472.000000	0.017431   
472.500000	-0.023977  
473.000000	0.104818   
473.500000	0.199500   
474.000000	0.080962   
474.500000	-0.074000  
475.000000	-0.004015  
475.500000	0.102689   
476.000000	0.169886   
476.500000	0.130500   
477.000000	0.274939   
477.500000	0.331401   
478.000000	0.303712   
478.500000	-0.039946  
479.000000	-0.284090  
479.500000	-0.435136  
480.000000	-0.277439  
480.500000	-0.162878  
481.000000	-0.087075  
481.500000	-0.036901  
482.000000	0.107151   
482.500000	0.318378   
483.000000	0.272939   
483.500000	0.005363   
484.000000	-0.320143  
484.500000	-0.375128  
485.000000	-0.211303  
485.500000	-0.014575  
486.000000	0.033303   
486.500000	0.002924   
487.000000	0.068348   
487.500000	0.227189   
488.000000	0.225507   
488.500000	0.165477   
489.000000	0.102106   
489.500000	0.230787   
490.000000	0.104780   
490.500000	-0.090272  
491.000000	-0.202075  
491.500000	0.072106   
492.000000	0.245280   
492.500000	0.156962   
493.000000	0.042643   
493.500000	0.157621   
494.000000	0.392674   
494.500000	0.333113   
495.000000	0.174143   
495.500000	0.129030   
496.000000	0.327659   
496.500000	0.436303   
497.000000	0.401999   
497.500000	0.286409   
498.000000	0.264227   
498.500000	0.399977   
499.000000	0.615772   
499.500000	0.843287   
500.000000	0.914310   
500.500000	0.935818   
501.000000	0.886537   
501.500000	0.845977   
502.000000	0.819833   
502.500000	0.855757   
503.000000	0.920750   
503.500000	0.966727   
504.000000	1.014893   
504.500000	1.074371   
505.000000	1.103901   
505.500000	1.161931   
506.000000	1.388954   
506.500000	1.583128   
507.000000	1.732818   
507.500000	1.840007   
508.000000	2.051030   
508.500000	2.073613   
509.000000	2.063712   
509.500000	2.101545   
510.000000	2.396265   
510.500000	2.456272   
511.000000	2.411712   
511.500000	2.297477   
512.000000	2.391772   
512.500000	2.563992   
513.000000	2.751878   
513.500000	2.833750   
514.000000	2.784181   
514.500000	2.697583   
515.000000	2.693984   
515.500000	2.845159   
516.000000	2.929212   
516.500000	3.096962   
517.000000	3.220401   
517.500000	3.314280   
518.000000	3.284121   
518.500000	3.222037   
519.000000	3.222492   
519.500000	3.288007   
520.000000	3.343613   
520.500000	3.338787   
521.000000	3.219825   
521.500000	3.020666   
522.000000	2.959560   
522.500000	3.275962   
523.000000	3.592340   
523.500000	3.886204   
524.000000	3.963621   
524.500000	4.170795   
525.000000	4.146416   
525.500000	4.107484   
526.000000	3.906742   
526.500000	4.143992   
527.000000	4.471257   
527.500000	4.848674   
528.000000	4.881128   
528.500000	4.987962   
529.000000	5.112848   
529.500000	5.325522   
530.000000	5.236015   
530.500000	5.184666   
531.000000	5.299689   
531.500000	5.700886   
532.000000	6.079386   
532.500000	6.477030   
533.000000	6.775257   
533.500000	7.038462   
534.000000	7.328015   
534.500000	7.321689   
535.000000	7.348325   
535.500000	7.638765   
536.000000	8.418901   
536.500000	9.119696   
537.000000	9.658363   
537.500000	9.855825   
538.000000	10.355469  
538.500000	10.803363  
539.000000	11.350871  
539.500000	11.794878  
540.000000	12.371143  
540.500000	12.911856  
541.000000	13.648719  
541.500000	13.988916  
542.000000	14.056500  
542.500000	13.880659  
543.000000	13.816575  
543.500000	13.681787  
544.000000	13.383500  
544.500000	12.752174  
545.000000	12.015431  
545.500000	11.107333  
546.000000	10.447446  
546.500000	9.891022   
547.000000	9.512568   
547.500000	8.863250   
548.000000	8.314681   
548.500000	7.692136   
549.000000	7.205477   
549.500000	6.657863   
550.000000	6.244636   
550.500000	5.500499   
551.000000	4.755545   
551.500000	4.347060   
552.000000	4.513363   
552.500000	4.640204   
553.000000	4.504166   
553.500000	4.126492   
554.000000	3.824462   
554.500000	3.506810   
555.000000	3.124196   
555.500000	2.861454   
556.000000	2.750484   
556.500000	2.869689   
557.000000	3.022037   
557.500000	3.140446   
558.000000	3.162659   
558.500000	3.272560   
559.000000	3.510833   
559.500000	3.607219   
560.000000	3.534628   
560.500000	3.291598   
561.000000	3.181121   
561.500000	3.067348   
562.000000	3.026189   
562.500000	3.080492   
563.000000	3.280909   
563.500000	3.395878   
564.000000	3.241348   
564.500000	3.083113   
565.000000	3.010484   
565.500000	3.115257   
566.000000	3.125068   
566.500000	3.128901   
567.000000	3.140886   
567.500000	3.249128   
568.000000	3.335795   
568.500000	3.292000   
569.000000	3.266909   
569.500000	3.316833   
570.000000	3.476674   
570.500000	3.327174   
571.000000	3.078901   
571.500000	2.924689   
572.000000	3.071734   
572.500000	3.272166   
573.000000	3.506507   
573.500000	3.720727   
574.000000	3.752310   
574.500000	3.506621   
575.000000	3.221742   
575.500000	3.195598   
576.000000	3.251477   
576.500000	3.237128   
577.000000	3.164287   
577.500000	3.176287   
578.000000	3.190537   
578.500000	3.118136   
579.000000	3.009560   
579.500000	3.074098   
580.000000	3.365037   
580.500000	3.493159   
581.000000	3.432553   
581.500000	3.232318   
582.000000	3.225250   
582.500000	3.215333   
583.000000	3.322780   
583.500000	3.424462   
584.000000	3.611446   
584.500000	3.671174   
585.000000	3.747810   
585.500000	3.727946   
586.000000	3.539401   
586.500000	3.277454   
587.000000	3.192795   
587.500000	3.342022   
588.000000	3.586196   
588.500000	3.814643   
589.000000	4.030265   
589.500000	4.016749   
590.000000	3.877348   
590.500000	3.542643   
591.000000	3.206227   
591.500000	2.966795   
592.000000	3.316098   
592.500000	3.929818   
593.000000	4.350416   
593.500000	4.202681   
594.000000	4.025068   
594.500000	3.949439   
595.000000	4.145136   
595.500000	4.303181   
596.000000	4.616068   
596.500000	4.811916   
597.000000	4.932378   
597.500000	4.790666   
598.000000	4.596257   
598.500000	4.543280   
599.000000	4.659803   
599.500000	4.905287   
600.000000	5.159128   
600.500000	5.430318   
601.000000	5.527909   
601.500000	5.470522   
602.000000	5.562689   
602.500000	5.737022   
603.000000	5.940954   
603.500000	5.943083   
604.000000	6.160098   
604.500000	6.558499   
605.000000	7.047946   
605.500000	7.334015   
606.000000	7.276946   
606.500000	7.055295   
607.000000	6.904704   
607.500000	7.162621   
608.000000	7.277825   
608.500000	7.398166   
609.000000	7.584681   
609.500000	8.196590   
610.000000	8.545212   
610.500000	8.604621   
611.000000	8.667007   
611.500000	9.149227   
612.000000	9.666863   
612.500000	9.896007   
613.000000	10.022181  
613.500000	10.571833  
614.000000	11.402492  
614.500000	12.177272  
615.000000	12.403272  
615.500000	12.662727  
616.000000	12.765409  
616.500000	13.282681  
617.000000	13.808863  
617.500000	14.675628  
618.000000	15.097727  
618.500000	15.124924  
619.000000	15.018333  
619.500000	15.658492  
620.000000	16.805356  
620.500000	17.824560  
621.000000	18.224840  
621.500000	18.116750  
622.000000	18.086659  
622.500000	18.631931  
623.000000	19.531090  
623.500000	20.277568  
624.000000	21.064022  
624.500000	22.223393  
625.000000	23.568939  
625.500000	24.574386  
626.000000	25.343219  
626.500000	26.160090  
627.000000	27.155303  
627.500000	28.199681  
628.000000	29.382090  
628.500000	30.506749  
629.000000	31.219878  
629.500000	31.815136  
630.000000	32.612636  
630.500000	34.214878  
631.000000	36.175840  
631.500000	38.230712  
632.000000	39.382333  
632.500000	40.109492  
633.000000	40.532189  
633.500000	41.654696  
634.000000	43.237136  
634.500000	44.908060  
635.000000	46.017818  
635.500000	46.860303  
636.000000	48.181204  
636.500000	50.167098  
637.000000	52.085371  
637.500000	53.699825  
638.000000	55.516068  
638.500000	57.669280  
639.000000	59.630068  
639.500000	61.523356  
640.000000	63.508386  
640.500000	65.258060  
641.000000	66.739219  
641.500000	68.216454  
642.000000	70.081765  
642.500000	72.026325  
643.000000	73.843598  
643.500000	75.478393  
644.000000	77.789598  
644.500000	80.416901  
645.000000	83.204439  
645.500000	85.044325  
646.000000	86.382196  
646.500000	88.002803  
647.000000	90.849765  
647.500000	93.281772  
648.000000	95.161628  
648.500000	97.394568  
649.000000	100.247219 
649.500000	102.835348 
650.000000	104.424098 
650.500000	106.369159 
651.000000	108.862083 
651.500000	111.327212 
652.000000	112.995303 
652.500000	114.908787 
653.000000	117.531856 
653.500000	120.153856 
654.000000	122.296545 
654.500000	124.446204 
655.000000	126.955984 
655.500000	130.583242 
656.000000	133.346825 
656.500000	135.514522 
657.000000	135.859477 
657.500000	137.035189 
658.000000	138.211984 
658.500000	140.362098 
659.000000	142.163212 
659.500000	144.961446 
660.000000	147.912931 
660.500000	149.635590 
661.000000	150.010454 
661.500000	150.381750 
662.000000	153.484901 
662.500000	158.273242 
663.000000	161.907431 
663.500000	162.884325 
664.000000	161.849621 
664.500000	162.633833 
665.000000	164.354765 
665.500000	166.654363 
666.000000	166.791765 
666.500000	167.844295 
667.000000	169.961522 
667.500000	173.094636 
668.000000	173.496333 
668.500000	172.737393 
669.000000	172.045416 
669.500000	172.299325 
670.000000	172.031780 
670.500000	171.934825 
671.000000	173.184295 
671.500000	175.318068 
672.000000	176.467295 
672.500000	176.907954 
673.000000	176.849310 
673.500000	177.012310 
674.000000	177.815242 
674.500000	178.729734 
675.000000	178.356257 
675.500000	177.015833 
676.000000	176.078083 
676.500000	175.715780 
677.000000	174.672613 
677.500000	172.669310 
678.000000	171.922083 
678.500000	172.118810 
679.000000	172.606825 
679.500000	172.807196 
680.000000	172.782886 
680.500000	171.002893 
681.000000	167.791909 
681.500000	164.431833 
682.000000	162.841242 
682.500000	162.124780 
683.000000	161.148181 
683.500000	158.983613 
684.000000	155.834409 
684.500000	152.243234 
685.000000	150.330613 
685.500000	149.335083 
686.000000	147.534075 
686.500000	144.358636 
687.000000	141.191954 
687.500000	138.999643 
688.000000	137.528113 
688.500000	136.718931 
689.000000	135.384234 
689.500000	132.796363 
690.000000	128.214136 
690.500000	124.295750 
691.000000	120.937969 
691.500000	118.322901 
692.000000	115.696901 
692.500000	113.793325 
693.000000	111.844992 
693.500000	109.786454 
694.000000	107.291242 
694.500000	104.012416 
695.000000	100.018219 
695.500000	96.364757  
696.000000	93.452053  
696.500000	91.862219  
697.000000	90.160090  
697.500000	88.364462  
698.000000	85.559833  
698.500000	82.323560  
699.000000	79.551825  
699.500000	77.992045  
700.000000	76.772659  
700.500000	74.331507  
701.000000	71.816045  
701.500000	69.852810  
702.000000	68.701590  
702.500000	67.062348  
703.000000	64.719871  
703.500000	62.406280  
704.000000	60.280356  
704.500000	58.490128  
705.000000	56.583098  
705.500000	54.872893  
706.000000	52.826583  
706.500000	51.109931  
707.000000	49.960924  
707.500000	49.231196  
708.000000	48.464946  
708.500000	47.415227  
709.000000	45.737522  
709.500000	43.812901  
710.000000	42.266303  
710.500000	41.003606  
711.000000	40.022416  
711.500000	38.555234  
712.000000	37.453689  
712.500000	36.687977  
713.000000	36.407340  
713.500000	35.627280  
714.000000	34.306628  
714.500000	32.732856  
715.000000	31.701022  
715.500000	31.184878  
716.000000	30.092492  
716.500000	28.980045  
717.000000	28.055674  
717.500000	27.818227  
718.000000	27.099318  
718.500000	25.869446  
719.000000	24.434045  
719.500000	23.514772  
720.000000	23.039734  
720.500000	22.861424  
721.000000	22.509742  
721.500000	21.765083  
722.000000	20.972431  
722.500000	20.149590  
723.000000	19.508318  
723.500000	19.258833  
724.000000	19.368787  
724.500000	19.358946  
725.000000	18.683931  
725.500000	17.893310  
726.000000	17.089856  
726.500000	16.441727  
727.000000	15.744204  
727.500000	15.235075  
728.000000	14.871795  
728.500000	14.589401  
729.000000	14.435083  
729.500000	14.305643  
730.000000	14.238234  
730.500000	13.734242  
731.000000	13.176363  
731.500000	12.543113  
732.000000	12.320689  
732.500000	11.944886  
733.000000	11.612454  
733.500000	11.426265  
734.000000	11.642696  
734.500000	11.572939  
735.000000	11.191022  
735.500000	10.640666  
736.000000	10.543303  
736.500000	10.490159  
737.000000	10.331424  
737.500000	9.863780   
738.000000	9.740871   
738.500000	9.803628   
739.000000	9.810659   
739.500000	9.282348   
740.000000	8.560363   
740.500000	8.170719   
741.000000	8.145416   
741.500000	8.309909   
742.000000	8.345787   
742.500000	8.222833   
743.000000	7.776022   
743.500000	7.398469   
744.000000	7.278015   
744.500000	7.382787   
745.000000	7.416075   
745.500000	7.270363   
746.000000	7.119045   
746.500000	7.074393   
747.000000	7.158939   
747.500000	7.048545   
748.000000	6.825840   
748.500000	6.477484   
749.000000	6.308401   
749.500000	6.076916   
750.000000	6.076689   
750.500000	6.085462   
751.000000	6.022446   
751.500000	5.828636   
752.000000	5.639522   
752.500000	5.618931   
753.000000	5.661621   
753.500000	5.738340   
754.000000	5.658643   
754.500000	5.595969   
755.000000	5.337053   
755.500000	5.109628   
756.000000	4.849757   
756.500000	4.678840   
757.000000	4.630825   
757.500000	4.653030   
758.000000	4.628522   
758.500000	4.553674   
759.000000	4.462234   
759.500000	4.395984   
760.000000	4.576931   
760.500000	4.716272   
761.000000	4.884113   
761.500000	4.707575   
762.000000	4.506242   
762.500000	4.264492   
763.000000	4.235500   
763.500000	4.011325   
764.000000	3.719484   
764.500000	3.499575   
765.000000	3.618719   
765.500000	3.933984   
766.000000	4.022909   
766.500000	4.028212   
767.000000	3.889530   
767.500000	3.786643   
768.000000	3.731606   
768.500000	3.727727   
769.000000	3.684303   
769.500000	3.611530   
770.000000	3.573030   
770.500000	3.651333   
771.000000	3.932098   
771.500000	4.094515   
772.000000	3.972583   
772.500000	3.531803   
773.000000	3.166856   
773.500000	3.017037   
774.000000	3.034083   
774.500000	3.139772   
775.000000	3.364363   
775.500000	3.451303   
776.000000	3.279916   
776.500000	3.037590   
777.000000	2.965325   
777.500000	3.078969   
778.000000	3.144075   
778.500000	3.128545   
779.000000	3.063181   
779.500000	3.152280   
780.000000	3.240825   
780.500000	3.212924   
781.000000	3.004803   
781.500000	2.940136   
782.000000	2.917469   
782.500000	2.942984   
783.000000	2.904772   
783.500000	3.036651   
784.000000	3.170946   
784.500000	3.200363   
785.000000	3.062727   
785.500000	2.905227   
786.000000	2.718037   
786.500000	2.640560   
787.000000	2.775757   
787.500000	3.024477   
788.000000	3.112386   
788.500000	2.988719   
789.000000	2.893098   
789.500000	2.904939   
790.000000	2.887590   
790.500000	2.725537   
791.000000	2.638310   
791.500000	2.596651   
792.000000	2.396393   
792.500000	2.112234   
793.000000	2.065689   
793.500000	2.372598   
794.000000	2.560007   
794.500000	2.430848   
795.000000	2.180227   
795.500000	2.280522   
796.000000	2.585568   
796.500000	2.780121   
797.000000	2.786265   
797.500000	2.689181   
798.000000	2.647810   
798.500000	2.440583   
799.000000	2.251280   
799.500000	2.047643   
800.000000	2.040386   
800.500000	2.011287   
801.000000	2.128848   
801.500000	2.181901   
802.000000	2.206560   
802.500000	2.134916   
803.000000	2.112515   
803.500000	2.161931   
804.000000	2.199439   
804.500000	1.923265   
805.000000	1.570643   
805.500000	1.402871   
806.000000	1.566484   
806.500000	1.800530   
807.000000	1.890212   
807.500000	1.796295   
808.000000	1.676386   
808.500000	1.489977   
809.000000	1.428446   
809.500000	1.534977   
810.000000	1.675356   
810.500000	1.683121   
811.000000	1.629204   
811.500000	1.459810   
812.000000	1.374742   
812.500000	1.375689   
813.000000	1.578916   
813.500000	1.793704   
814.000000	1.834666   
814.500000	1.839265   
815.000000	1.822901   
815.500000	1.774848   
816.000000	1.469219   
816.500000	1.308022   
817.000000	1.297939   
817.500000	1.478287   
818.000000	1.449689   
818.500000	1.531212   
819.000000	1.583037   
819.500000	1.602613   
820.000000	1.480219   
820.500000	1.520007   
821.000000	1.756136   
821.500000	2.143621   
822.000000	2.380212   
822.500000	2.507234   
823.000000	2.442818   
823.500000	2.390704   
824.000000	2.371030   
824.500000	2.385439   
825.000000	2.236318   
825.500000	2.079674   
826.000000	1.938075   
826.500000	2.010113   
827.000000	2.168780   
827.500000	2.151643   
828.000000	1.945977   
828.500000	1.674462   
829.000000	1.503257   
829.500000	1.349454   
830.000000	1.192530   
830.500000	1.062492   
831.000000	1.133795   
831.500000	1.148030   
832.000000	1.065886   
832.500000	0.928037   
833.000000	0.916886   
833.500000	1.024977   
834.000000	1.043856   
834.500000	0.961212   
835.000000	0.914878   
835.500000	1.052068   
836.000000	1.076727   
836.500000	1.027628   
837.000000	0.835643   
837.500000	0.803287   
838.000000	0.833583   
838.500000	1.003053   
839.000000	1.076651   
839.500000	1.074795   
840.000000	0.922053   
840.500000	0.831325   
841.000000	0.801833   
841.500000	0.840901   
842.000000	0.858795   
842.500000	0.913318   
843.000000	0.842674   
843.500000	0.711295   
844.000000	0.607280   
844.500000	0.673825   
845.000000	0.675068   
845.500000	0.514227   
846.000000	0.260068   
846.500000	0.140507   
847.000000	0.172401   
847.500000	0.254636   
848.000000	0.432719   
848.500000	0.406007   
849.000000	0.297053   
849.500000	0.108083   
850.000000	0.219765   
850.500000	0.249159   
851.000000	0.270840   
851.500000	0.084356   
852.000000	0.052901   
852.500000	0.048598   
853.000000	0.190477   
853.500000	0.240204   
854.000000	0.168462   
854.500000	-0.118727  
855.000000	-0.302606  
855.500000	-0.207477  
856.000000	0.109181   
856.500000	0.295810   
857.000000	0.243053   
857.500000	0.085969   
858.000000	-0.090106  
858.500000	-0.149212  
859.000000	-0.122537  
859.500000	0.025537   
860.000000	0.146689   
860.500000	0.182166   
861.000000	0.132090   
861.500000	0.037265   
862.000000	-0.023886  
862.500000	-0.036416  
863.000000	-0.010590  
863.500000	-0.044689  
864.000000	-0.096651  
864.500000	-0.135113  
865.000000	-0.151090  
865.500000	-0.100159  
866.000000	-0.036969  
866.500000	-0.005689  
867.000000	-0.042280  
867.500000	-0.087340  
868.000000	-0.102750  
868.500000	-0.095143  
869.000000	-0.087060  
869.500000	-0.109780  
870.000000	-0.161598  
870.500000	-0.189810  
871.000000	-0.176181  
871.500000	-0.189393  
872.000000	-0.214128  
872.500000	-0.180022  
873.000000	-0.076628  
873.500000	-0.049621  
874.000000	-0.081681  
874.500000	-0.117492  
875.000000	-0.132439  
875.500000	-0.225007  
876.000000	-0.261795  
876.500000	-0.106242  
877.000000	0.158757   
877.500000	0.196962   
878.000000	-0.012212  
878.500000	-0.188189  
879.000000	-0.102196  
879.500000	0.135977   
880.000000	0.279636   
880.500000	0.247651   
881.000000	0.099234   
881.500000	-0.027734  
882.000000	-0.073136  
882.500000	-0.146772  
883.000000	-0.249204  
883.500000	-0.248136  
884.000000	-0.080765  
884.500000	0.054090   
885.000000	0.033113   
885.500000	-0.131113  
886.000000	-0.172984  
886.500000	-0.106287  
887.000000	0.041856   
887.500000	0.100757   
888.000000	0.087962   
888.500000	-0.001340  
889.000000	-0.073356  
889.500000	-0.159931  
890.000000	-0.171136  
890.500000	-0.214446  
891.000000	-0.237219  
891.500000	-0.229674  
892.000000	-0.128113  
892.500000	-0.045575  
893.000000	-0.006212  
893.500000	-0.109613  
894.000000	-0.182886  
894.500000	-0.202621  
895.000000	-0.149424  
895.500000	-0.095712  
896.000000	-0.107636  
896.500000	-0.055560  
897.000000	0.052121   
897.500000	0.117227   
898.000000	0.013234   
898.500000	-0.047401  
899.000000	-0.068416  
899.500000	-0.120007  
900.000000	-0.411030  
900.500000	-0.901999  

