PE FL                   SPECTRUM    ASCII       PEDS        1.60        
  -1
S12R#21.SP
24/04/15
16:08:12.00
24/04/15
16:09:37.00
Jan

900.500000
1









LS55
405.00
5.00
5.00
SCAN
1
20
100
100
0
400
0
1
0
1
5
ON
900 405 
1 0 0
#HDR
-1
-1
#GR
NM

0.00002384185791015625
0.0
450.000000
0.500000
902
8
178.536992
-0.586613
#DATA
450.000000	0.334000   
450.500000	-0.173772  
451.000000	-0.541795  
451.500000	-0.586613  
452.000000	-0.395886  
452.500000	-0.201098  
453.000000	-0.111356  
453.500000	-0.043030  
454.000000	-0.054818  
454.500000	-0.193166  
455.000000	-0.365931  
455.500000	-0.383833  
456.000000	-0.295212  
456.500000	-0.160803  
457.000000	-0.166015  
457.500000	-0.256681  
458.000000	-0.433780  
458.500000	-0.403462  
459.000000	-0.269189  
459.500000	-0.029219  
460.000000	-0.019590  
460.500000	0.037015   
461.000000	0.030651   
461.500000	0.095484   
462.000000	0.140242   
462.500000	0.039295   
463.000000	-0.130166  
463.500000	-0.324015  
464.000000	-0.295340  
464.500000	-0.259227  
465.000000	-0.212113  
465.500000	-0.300015  
466.000000	-0.116515  
466.500000	0.111810   
467.000000	0.255348   
467.500000	0.136696   
468.000000	0.006977   
468.500000	-0.066174  
469.000000	-0.003719  
469.500000	0.061515   
470.000000	0.121537   
470.500000	0.110303   
471.000000	0.053295   
471.500000	-0.024060  
472.000000	-0.065818  
472.500000	-0.048946  
473.000000	0.042477   
473.500000	0.128424   
474.000000	0.011477   
474.500000	-0.175083  
475.000000	-0.289363  
475.500000	-0.166166  
476.000000	0.007371   
476.500000	0.093174   
477.000000	-0.103598  
477.500000	-0.339575  
478.000000	-0.501250  
478.500000	-0.350454  
479.000000	-0.026257  
479.500000	0.228371   
480.000000	0.181886   
480.500000	0.012939   
481.000000	-0.036590  
481.500000	0.018553   
482.000000	-0.059401  
482.500000	-0.306257  
483.000000	-0.282196  
483.500000	-0.070234  
484.000000	0.124431   
484.500000	0.057613   
485.000000	-0.024378  
485.500000	-0.084901  
486.000000	0.018424   
486.500000	0.094143   
487.000000	0.151818   
487.500000	0.138174   
488.000000	0.042181   
488.500000	0.045462   
489.000000	0.106060   
489.500000	0.217174   
490.000000	0.106909   
490.500000	0.072598   
491.000000	0.077189   
491.500000	0.215712   
492.000000	0.121363   
492.500000	0.035128   
493.000000	0.082121   
493.500000	0.222598   
494.000000	0.295363   
494.500000	0.255939   
495.000000	0.218992   
495.500000	0.171007   
496.000000	0.096628   
496.500000	0.047469   
497.000000	0.037598   
497.500000	0.179916   
498.000000	0.370613   
498.500000	0.604007   
499.000000	0.696969   
499.500000	0.770651   
500.000000	0.707166   
500.500000	0.695787   
501.000000	0.727810   
501.500000	0.782704   
502.000000	0.720113   
502.500000	0.735856   
503.000000	0.903636   
503.500000	1.221780   
504.000000	1.393924   
504.500000	1.339325   
505.000000	1.142530   
505.500000	1.008030   
506.000000	1.181545   
506.500000	1.471553   
507.000000	1.723621   
507.500000	1.759386   
508.000000	1.930196   
508.500000	2.167954   
509.000000	2.346151   
509.500000	2.294000   
510.000000	2.226136   
510.500000	2.221090   
511.000000	2.388007   
511.500000	2.623257   
512.000000	2.801348   
512.500000	2.787833   
513.000000	2.786750   
513.500000	2.793886   
514.000000	2.926037   
514.500000	2.875303   
515.000000	2.896803   
515.500000	2.848553   
516.000000	2.865272   
516.500000	2.834121   
517.000000	2.945863   
517.500000	3.004712   
518.000000	3.002227   
518.500000	3.077196   
519.000000	3.296575   
519.500000	3.557696   
520.000000	3.618446   
520.500000	3.487007   
521.000000	3.291098   
521.500000	3.147106   
522.000000	3.213090   
522.500000	3.451893   
523.000000	3.731075   
523.500000	3.666242   
524.000000	3.590121   
524.500000	3.578833   
525.000000	3.647143   
525.500000	3.605833   
526.000000	3.532666   
526.500000	3.744454   
527.000000	4.195446   
527.500000	4.617636   
528.000000	4.845719   
528.500000	5.003000   
529.000000	5.295295   
529.500000	5.681719   
530.000000	6.041833   
530.500000	5.914939   
531.000000	5.718159   
531.500000	5.490522   
532.000000	5.631424   
532.500000	5.865734   
533.000000	6.271984   
533.500000	6.811696   
534.000000	7.347962   
534.500000	7.680848   
535.000000	7.860772   
535.500000	8.241545   
536.000000	8.659446   
536.500000	8.977030   
537.000000	9.217030   
537.500000	9.908477   
538.000000	10.791803  
538.500000	11.723750  
539.000000	12.210954  
539.500000	12.512454  
540.000000	12.566765  
540.500000	12.878643  
541.000000	13.430333  
541.500000	14.191931  
542.000000	14.333446  
542.500000	14.067409  
543.000000	13.507484  
543.500000	13.201166  
544.000000	12.855371  
544.500000	12.619409  
545.000000	11.901863  
545.500000	11.101098  
546.000000	10.494909  
546.500000	10.284643  
547.000000	9.912484   
547.500000	9.067090   
548.000000	8.187598   
548.500000	7.544696   
549.000000	7.076825   
549.500000	6.479742   
550.000000	5.945795   
550.500000	5.545590   
551.000000	5.024249   
551.500000	4.448007   
552.000000	3.820325   
552.500000	3.503590   
553.000000	3.347568   
553.500000	3.257022   
554.000000	3.133727   
554.500000	3.184363   
555.000000	3.365530   
555.500000	3.539606   
556.000000	3.541340   
556.500000	3.503939   
557.000000	3.436378   
557.500000	3.409265   
558.000000	3.336878   
558.500000	3.262363   
559.000000	3.274825   
559.500000	3.323083   
560.000000	3.336310   
560.500000	3.269856   
561.000000	3.273545   
561.500000	3.226454   
562.000000	3.119575   
562.500000	2.992280   
563.000000	3.037962   
563.500000	3.025303   
564.000000	3.005537   
564.500000	3.096818   
565.000000	3.410560   
565.500000	3.506333   
566.000000	3.407999   
566.500000	3.122606   
567.000000	3.114636   
567.500000	3.065962   
568.000000	3.124704   
568.500000	3.207393   
569.000000	3.415219   
569.500000	3.447954   
570.000000	3.337992   
570.500000	3.170492   
571.000000	3.208060   
571.500000	3.340856   
572.000000	3.466015   
572.500000	3.466409   
573.000000	3.459181   
573.500000	3.366174   
574.000000	3.463901   
574.500000	3.557174   
575.000000	3.607734   
575.500000	3.450954   
576.000000	3.340022   
576.500000	3.230477   
577.000000	3.249840   
577.500000	3.316954   
578.000000	3.450689   
578.500000	3.482219   
579.000000	3.420924   
579.500000	3.434265   
580.000000	3.561189   
580.500000	3.587143   
581.000000	3.398856   
581.500000	3.161446   
582.000000	2.970757   
582.500000	3.013053   
583.000000	3.092492   
583.500000	3.234446   
584.000000	3.349628   
584.500000	3.502136   
585.000000	3.642007   
585.500000	3.759303   
586.000000	3.764871   
586.500000	3.657810   
587.000000	3.634598   
587.500000	3.709583   
588.000000	3.946340   
588.500000	3.971787   
589.000000	3.899916   
589.500000	3.736189   
590.000000	3.597848   
590.500000	3.655409   
591.000000	3.878287   
591.500000	4.074348   
592.000000	3.988242   
592.500000	3.848022   
593.000000	3.791969   
593.500000	3.899734   
594.000000	3.931537   
594.500000	4.102969   
595.000000	4.418007   
595.500000	4.729757   
596.000000	4.651151   
596.500000	4.406757   
597.000000	4.204143   
597.500000	4.382333   
598.000000	4.752545   
598.500000	4.881492   
599.000000	4.804583   
599.500000	4.821878   
600.000000	5.290219   
600.500000	5.900143   
601.000000	6.348090   
601.500000	6.319780   
602.000000	6.118954   
602.500000	5.871575   
603.000000	5.918522   
603.500000	6.277318   
604.000000	6.606643   
604.500000	6.594386   
605.000000	6.455909   
605.500000	6.468530   
606.000000	6.986689   
606.500000	7.444340   
607.000000	7.670909   
607.500000	7.628303   
608.000000	7.668181   
608.500000	7.991060   
609.000000	8.412863   
609.500000	8.834969   
610.000000	9.009893   
610.500000	8.925401   
611.000000	8.935863   
611.500000	9.495810   
612.000000	10.296560  
612.500000	10.680219  
613.000000	10.513704  
613.500000	10.308674  
614.000000	10.529871  
614.500000	10.961666  
615.000000	11.469969  
615.500000	12.221356  
616.000000	12.848939  
616.500000	13.358272  
617.000000	13.500939  
617.500000	13.613742  
618.000000	13.838992  
618.500000	14.296765  
619.000000	15.037045  
619.500000	16.070537  
620.000000	17.289159  
620.500000	18.409674  
621.000000	18.808356  
621.500000	18.552265  
622.000000	18.233098  
622.500000	18.273659  
623.000000	18.855787  
623.500000	20.040424  
624.000000	21.393901  
624.500000	22.635439  
625.000000	23.685840  
625.500000	24.355007  
626.000000	24.738568  
626.500000	25.079916  
627.000000	26.081136  
627.500000	27.489462  
628.000000	28.489924  
628.500000	28.852348  
629.000000	30.017348  
629.500000	31.659969  
630.000000	33.431083  
630.500000	34.296522  
631.000000	35.093242  
631.500000	35.824015  
632.000000	37.057090  
632.500000	38.129462  
633.000000	39.590590  
633.500000	41.216416  
634.000000	43.405742  
634.500000	45.714022  
635.000000	47.614856  
635.500000	48.254893  
636.000000	48.533310  
636.500000	49.121999  
637.000000	50.566772  
637.500000	52.406371  
638.000000	54.583696  
638.500000	56.835772  
639.000000	58.806007  
639.500000	60.010977  
640.000000	61.422083  
640.500000	63.107166  
641.000000	65.380090  
641.500000	67.648893  
642.000000	70.152924  
642.500000	71.948962  
643.000000	73.102378  
643.500000	74.396893  
644.000000	76.694568  
644.500000	79.600325  
645.000000	81.873204  
645.500000	83.751189  
646.000000	85.328901  
646.500000	87.584628  
647.000000	90.044333  
647.500000	92.819643  
648.000000	94.989757  
648.500000	96.472749  
649.000000	97.896681  
649.500000	100.152424 
650.000000	102.862712 
650.500000	105.700545 
651.000000	108.080628 
651.500000	110.345924 
652.000000	112.464787 
652.500000	114.242659 
653.000000	115.747000 
653.500000	118.013878 
654.000000	120.400969 
654.500000	122.246325 
655.000000	123.456530 
655.500000	125.456515 
656.000000	129.184340 
656.500000	133.164174 
657.000000	135.086280 
657.500000	135.895462 
658.000000	136.222416 
658.500000	138.440045 
659.000000	140.897765 
659.500000	144.403189 
660.000000	146.599772 
660.500000	149.028462 
661.000000	149.776121 
661.500000	151.163280 
662.000000	152.152424 
662.500000	154.276878 
663.000000	156.888401 
663.500000	159.247045 
664.000000	160.850636 
664.500000	161.616878 
665.000000	162.188689 
665.500000	162.530212 
666.000000	163.697636 
666.500000	165.589196 
667.000000	168.243083 
667.500000	169.306772 
668.000000	169.249666 
668.500000	169.147310 
669.000000	169.825060 
669.500000	171.189628 
670.000000	172.901696 
670.500000	174.316083 
671.000000	174.474553 
671.500000	174.454810 
672.000000	174.574469 
672.500000	177.029984 
673.000000	178.515363 
673.500000	178.536992 
674.000000	176.865553 
674.500000	176.199537 
675.000000	175.976924 
675.500000	176.193454 
676.000000	175.621636 
676.500000	175.350757 
677.000000	174.905174 
677.500000	174.398507 
678.000000	174.191803 
678.500000	174.507439 
679.000000	173.605590 
679.500000	172.120704 
680.000000	169.618765 
680.500000	167.936386 
681.000000	166.818856 
681.500000	166.764666 
682.000000	166.114901 
682.500000	165.129954 
683.000000	162.838560 
683.500000	160.282151 
684.000000	156.909424 
684.500000	154.471401 
685.000000	152.078446 
685.500000	150.594583 
686.000000	147.736825 
686.500000	145.130204 
687.000000	141.945015 
687.500000	140.705537 
688.000000	139.578303 
688.500000	139.330439 
689.000000	137.517318 
689.500000	135.197803 
690.000000	131.251598 
690.500000	127.548734 
691.000000	123.321219 
691.500000	119.955022 
692.000000	117.004962 
692.500000	116.181174 
693.000000	115.639265 
693.500000	113.892416 
694.000000	109.238659 
694.500000	104.428537 
695.000000	101.345931 
695.500000	99.713909  
696.000000	97.858151  
696.500000	94.795863  
697.000000	91.332681  
697.500000	88.145946  
698.000000	85.780310  
698.500000	83.879477  
699.000000	82.346742  
699.500000	80.381962  
700.000000	78.069856  
700.500000	75.789613  
701.000000	73.557045  
701.500000	71.635734  
702.000000	69.473242  
702.500000	66.926037  
703.000000	64.381651  
703.500000	62.626984  
704.000000	61.402750  
704.500000	60.133492  
705.000000	58.454818  
705.500000	56.883962  
706.000000	55.243098  
706.500000	53.716628  
707.000000	51.922681  
707.500000	50.444651  
708.000000	49.151878  
708.500000	47.884280  
709.000000	46.056265  
709.500000	44.096371  
710.000000	42.339515  
710.500000	41.518825  
711.000000	40.704409  
711.500000	39.918946  
712.000000	38.778439  
712.500000	38.245606  
713.000000	37.419931  
713.500000	36.559113  
714.000000	34.959969  
714.500000	33.582030  
715.000000	32.543954  
715.500000	31.880424  
716.000000	31.246568  
716.500000	30.359613  
717.000000	29.429787  
717.500000	28.456507  
718.000000	27.626333  
718.500000	27.121719  
719.000000	26.725454  
719.500000	26.173954  
720.000000	25.254431  
720.500000	24.510651  
721.000000	23.851818  
721.500000	23.034250  
722.000000	21.842636  
722.500000	20.983015  
723.000000	20.442356  
723.500000	20.118393  
724.000000	19.577757  
724.500000	18.989386  
725.000000	18.462272  
725.500000	18.247583  
726.000000	18.022924  
726.500000	17.499159  
727.000000	16.636257  
727.500000	15.825090  
728.000000	15.379424  
728.500000	15.182734  
729.000000	15.145409  
729.500000	14.907386  
730.000000	14.417318  
730.500000	13.737204  
731.000000	13.283484  
731.500000	13.049856  
732.000000	13.042371  
732.500000	13.053795  
733.000000	13.064477  
733.500000	12.953946  
734.000000	12.545098  
734.500000	11.867575  
735.000000	11.228598  
735.500000	10.896666  
736.000000	10.989242  
736.500000	11.069856  
737.000000	10.885045  
737.500000	10.072939  
738.000000	9.677295   
738.500000	9.285499   
739.000000	9.195750   
739.500000	8.840977   
740.000000	8.998090   
740.500000	8.988386   
741.000000	8.936999   
741.500000	8.678257   
742.000000	8.755499   
742.500000	8.661212   
743.000000	8.045696   
743.500000	7.473931   
744.000000	7.288212   
744.500000	7.503621   
745.000000	7.580613   
745.500000	7.410871   
746.000000	7.249939   
746.500000	7.174848   
747.000000	7.115568   
747.500000	6.790075   
748.000000	6.332234   
748.500000	5.941257   
749.000000	6.005356   
749.500000	6.290431   
750.000000	6.627606   
750.500000	6.504037   
751.000000	6.143681   
751.500000	5.673598   
752.000000	5.540787   
752.500000	5.634196   
753.000000	5.792439   
753.500000	5.653090   
754.000000	5.271772   
754.500000	5.082015   
755.000000	5.153128   
755.500000	5.419507   
756.000000	5.291053   
756.500000	4.980825   
757.000000	4.652143   
757.500000	4.662106   
758.000000	4.767568   
758.500000	4.681333   
759.000000	4.332931   
759.500000	3.964651   
760.000000	3.844749   
760.500000	4.126075   
761.000000	4.428628   
761.500000	4.433757   
762.000000	4.183674   
762.500000	4.044568   
763.000000	4.088545   
763.500000	4.133500   
764.000000	4.144053   
764.500000	4.116075   
765.000000	4.115401   
765.500000	3.947583   
766.000000	3.871303   
766.500000	3.947022   
767.000000	4.068469   
767.500000	4.088356   
768.000000	3.895287   
768.500000	3.763537   
769.000000	3.689871   
769.500000	3.704333   
770.000000	3.533757   
770.500000	3.341159   
771.000000	3.334621   
771.500000	3.526083   
772.000000	3.663166   
772.500000	3.474174   
773.000000	3.243939   
773.500000	3.094075   
774.000000	3.144196   
774.500000	3.173992   
775.000000	3.140431   
775.500000	3.084750   
776.000000	3.072916   
776.500000	3.223340   
777.000000	3.361295   
777.500000	3.395704   
778.000000	3.247893   
778.500000	3.182121   
779.000000	3.114174   
779.500000	3.078136   
780.000000	2.917446   
780.500000	2.816969   
781.000000	2.774651   
781.500000	2.829803   
782.000000	2.893136   
782.500000	2.999704   
783.000000	2.980712   
783.500000	2.788727   
784.000000	2.617295   
784.500000	2.603500   
785.000000	2.804166   
785.500000	2.941348   
786.000000	3.025886   
786.500000	3.036696   
787.000000	3.078295   
787.500000	3.054143   
788.000000	3.065643   
788.500000	2.894780   
789.000000	2.727401   
789.500000	2.510000   
790.000000	2.508378   
790.500000	2.535371   
791.000000	2.690333   
791.500000	2.695507   
792.000000	2.697212   
792.500000	2.469409   
793.000000	2.376522   
793.500000	2.339189   
794.000000	2.441484   
794.500000	2.409439   
795.000000	2.459901   
795.500000	2.488871   
796.000000	2.599825   
796.500000	2.451772   
797.000000	2.285628   
797.500000	2.174537   
798.000000	2.192030   
798.500000	2.334462   
799.000000	2.480560   
799.500000	2.419893   
800.000000	2.096022   
800.500000	1.838295   
801.000000	1.817568   
801.500000	1.906333   
802.000000	1.996886   
802.500000	2.027598   
803.000000	2.081401   
803.500000	1.902803   
804.000000	1.855234   
804.500000	1.876106   
805.000000	2.002659   
805.500000	1.870878   
806.000000	1.905075   
806.500000	1.932977   
807.000000	1.938575   
807.500000	1.645803   
808.000000	1.513803   
808.500000	1.579446   
809.000000	1.824212   
809.500000	1.965992   
810.000000	2.103893   
810.500000	2.132522   
811.000000	1.955598   
811.500000	1.667121   
812.000000	1.503106   
812.500000	1.502159   
813.000000	1.546280   
813.500000	1.538878   
814.000000	1.581174   
814.500000	1.630378   
815.000000	1.656537   
815.500000	1.645969   
816.000000	1.593318   
816.500000	1.515560   
817.000000	1.421886   
817.500000	1.335666   
818.000000	1.388992   
818.500000	1.617878   
819.000000	1.974022   
819.500000	2.210295   
820.000000	2.141757   
820.500000	1.811090   
821.000000	1.576795   
821.500000	1.627651   
822.000000	1.849893   
822.500000	2.185621   
823.000000	2.378356   
823.500000	2.494136   
824.000000	2.465431   
824.500000	2.550128   
825.000000	2.554780   
825.500000	2.457439   
826.000000	2.129909   
826.500000	2.066833   
827.000000	2.144931   
827.500000	2.183803   
828.000000	2.006659   
828.500000	1.881227   
829.000000	1.813257   
829.500000	1.794803   
830.000000	1.760098   
830.500000	1.657310   
831.000000	1.432886   
831.500000	1.133871   
832.000000	0.991636   
832.500000	1.115962   
833.000000	1.253719   
833.500000	1.259378   
834.000000	1.174750   
834.500000	1.155469   
835.000000	1.108575   
835.500000	0.987166   
836.000000	0.865765   
836.500000	0.877803   
837.000000	1.000037   
837.500000	1.046113   
838.000000	1.012250   
838.500000	0.905613   
839.000000	0.825257   
839.500000	0.693840   
840.000000	0.672522   
840.500000	0.654424   
841.000000	0.676863   
841.500000	0.512098   
842.000000	0.294590   
842.500000	0.218492   
843.000000	0.480234   
843.500000	0.768833   
844.000000	0.829583   
844.500000	0.638734   
845.000000	0.390742   
845.500000	0.240007   
846.000000	0.168159   
846.500000	0.164984   
847.000000	0.231878   
847.500000	0.229962   
848.000000	0.170015   
848.500000	-0.022386  
849.000000	-0.084583  
849.500000	-0.000515  
850.000000	0.212393   
850.500000	0.322969   
851.000000	0.402901   
851.500000	0.396969   
852.000000	0.399568   
852.500000	0.321787   
853.000000	0.223856   
853.500000	0.094727   
854.000000	-0.005719  
854.500000	-0.107992  
855.000000	-0.120984  
855.500000	-0.063840  
856.000000	0.085363   
856.500000	0.270613   
857.000000	0.386204   
857.500000	0.357469   
858.000000	0.165431   
858.500000	-0.009727  
859.000000	-0.104386  
859.500000	-0.073234  
860.000000	-0.067090  
860.500000	-0.015128  
861.000000	0.024643   
861.500000	0.010431   
862.000000	-0.003530  
862.500000	-0.077196  
863.000000	-0.142628  
863.500000	-0.239371  
864.000000	-0.177159  
864.500000	-0.154280  
865.000000	-0.110439  
865.500000	-0.180643  
866.000000	-0.088954  
866.500000	0.016174   
867.000000	0.106386   
867.500000	0.034424   
868.000000	-0.138628  
868.500000	-0.259181  
869.000000	-0.166371  
869.500000	0.044083   
870.000000	0.080568   
870.500000	-0.000553  
871.000000	-0.051545  
871.500000	-0.032590  
872.000000	-0.090227  
872.500000	-0.189810  
873.000000	-0.180348  
873.500000	-0.056530  
874.000000	0.079878   
874.500000	0.108969   
875.000000	0.092515   
875.500000	0.025787   
876.000000	0.032250   
876.500000	-0.070159  
877.000000	-0.182969  
877.500000	-0.314984  
878.000000	-0.261174  
878.500000	-0.174393  
879.000000	-0.041893  
879.500000	0.013295   
880.000000	0.073250   
880.500000	-0.000439  
881.000000	-0.109598  
881.500000	-0.199068  
882.000000	-0.182674  
882.500000	-0.110189  
883.000000	-0.002166  
883.500000	-0.028765  
884.000000	-0.104234  
884.500000	-0.181000  
885.000000	-0.173272  
885.500000	-0.124045  
886.000000	-0.025878  
886.500000	0.072545   
887.000000	0.110431   
887.500000	0.062750   
888.000000	0.030575   
888.500000	0.069787   
889.000000	0.104196   
889.500000	0.049295   
890.000000	0.031424   
890.500000	0.054787   
891.000000	0.132174   
891.500000	0.150946   
892.000000	0.140318   
892.500000	0.073068   
893.000000	0.012500   
893.500000	0.000984   
894.000000	0.030242   
894.500000	0.039674   
895.000000	-0.034159  
895.500000	-0.091856  
896.000000	-0.132621  
896.500000	-0.055060  
897.000000	-0.002825  
897.500000	0.068348   
898.000000	0.018818   
898.500000	-0.032856  
899.000000	-0.090590  
899.500000	-0.013212  
900.000000	0.103651   
900.500000	0.265000   

