PE FL                   SPECTRUM    ASCII       PEDS        1.60        
  -1
S12R#48.SP
24/04/15
16:46:42.00
24/04/15
16:48:07.00
Jan

900.500000
1









LS55
405.00
5.00
5.00
SCAN
1
20
100
100
0
400
0
1
0
1
5
ON
900 405 
1 0 0
#HDR
-1
-1
#GR
NM

0.00002384185791015625
0.0
450.000000
0.500000
902
8
150.257075
-0.539999
#DATA
450.000000	-0.539999  
450.500000	-0.017348  
451.000000	0.241265   
451.500000	0.174590   
452.000000	-0.010007  
452.500000	-0.054386  
453.000000	-0.003954  
453.500000	0.109037   
454.000000	0.138537   
454.500000	-0.011719  
455.000000	-0.173643  
455.500000	-0.314333  
456.000000	-0.132340  
456.500000	0.074628   
457.000000	0.183151   
457.500000	0.017522   
458.000000	-0.092310  
458.500000	-0.023022  
459.000000	0.132840   
459.500000	0.167984   
460.000000	-0.016606  
460.500000	-0.098204  
461.000000	-0.047742  
461.500000	0.073674   
462.000000	0.038901   
462.500000	-0.217439  
463.000000	-0.380984  
463.500000	-0.442924  
464.000000	-0.272984  
464.500000	-0.212734  
465.000000	-0.108507  
465.500000	-0.079310  
466.000000	-0.055871  
466.500000	-0.061583  
467.000000	-0.111621  
467.500000	-0.105090  
468.000000	-0.151174  
468.500000	-0.140462  
469.000000	-0.073219  
469.500000	0.041242   
470.000000	0.045886   
470.500000	-0.069159  
471.000000	-0.148977  
471.500000	-0.080136  
472.000000	0.107174   
472.500000	0.217159   
473.000000	0.211515   
473.500000	0.109022   
474.000000	0.029636   
474.500000	0.061295   
475.000000	0.190613   
475.500000	0.256507   
476.000000	0.100704   
476.500000	-0.069757  
477.000000	-0.168568  
477.500000	-0.103984  
478.000000	-0.075803  
478.500000	-0.040227  
479.000000	-0.110651  
479.500000	-0.137946  
480.000000	-0.165537  
480.500000	-0.112409  
481.000000	0.047280   
481.500000	0.145984   
482.000000	0.167969   
482.500000	0.045098   
483.000000	-0.049007  
483.500000	-0.074181  
484.000000	-0.025659  
484.500000	0.064424   
485.000000	0.157810   
485.500000	0.210113   
486.000000	0.199568   
486.500000	0.165734   
487.000000	0.086083   
487.500000	0.053393   
488.000000	-0.028666  
488.500000	-0.090454  
489.000000	-0.132560  
489.500000	0.053234   
490.000000	0.199060   
490.500000	0.164462   
491.000000	-0.061007  
491.500000	-0.044272  
492.000000	0.026492   
492.500000	0.149568   
493.000000	0.219280   
493.500000	0.235098   
494.000000	0.130363   
494.500000	0.016477   
495.000000	0.158303   
495.500000	0.270075   
496.000000	0.192446   
496.500000	-0.029446  
497.000000	0.093333   
497.500000	0.406189   
498.000000	0.626772   
498.500000	0.538227   
499.000000	0.280136   
499.500000	0.217424   
500.000000	0.396863   
500.500000	0.805280   
501.000000	0.964257   
501.500000	0.982280   
502.000000	0.842999   
502.500000	0.827446   
503.000000	0.745515   
503.500000	0.828007   
504.000000	0.981416   
504.500000	1.254386   
505.000000	1.267151   
505.500000	1.163090   
506.000000	1.168530   
506.500000	1.489621   
507.000000	1.717893   
507.500000	1.654000   
508.000000	1.482083   
508.500000	1.630795   
509.000000	2.072727   
509.500000	2.458439   
510.000000	2.541954   
510.500000	2.483143   
511.000000	2.464515   
511.500000	2.593515   
512.000000	2.695840   
512.500000	2.776348   
513.000000	2.810507   
513.500000	2.813727   
514.000000	2.770803   
514.500000	2.712651   
515.000000	2.741121   
515.500000	2.824659   
516.000000	3.009287   
516.500000	3.123916   
517.000000	3.325530   
517.500000	3.311643   
518.000000	3.316068   
518.500000	3.213696   
519.000000	3.311765   
519.500000	3.359090   
520.000000	3.416871   
520.500000	3.329856   
521.000000	3.301863   
521.500000	3.428143   
522.000000	3.612833   
522.500000	3.680348   
523.000000	3.478431   
523.500000	3.439159   
524.000000	3.532575   
524.500000	3.707537   
525.000000	3.646704   
525.500000	3.604939   
526.000000	3.700962   
526.500000	3.886363   
527.000000	3.972151   
527.500000	4.052522   
528.000000	4.288151   
528.500000	4.543946   
529.000000	4.716424   
529.500000	4.828121   
530.000000	4.927303   
530.500000	5.200946   
531.000000	5.449818   
531.500000	5.858636   
532.000000	6.072462   
532.500000	6.404265   
533.000000	6.495522   
533.500000	6.779924   
534.000000	6.827712   
534.500000	7.280037   
535.000000	7.863537   
535.500000	8.413795   
536.000000	8.538946   
536.500000	8.724583   
537.000000	9.314681   
537.500000	10.164257  
538.000000	10.816280  
538.500000	11.057545  
539.000000	11.356363  
539.500000	11.799083  
540.000000	12.396606  
540.500000	12.967500  
541.000000	13.357484  
541.500000	13.654204  
542.000000	13.864787  
542.500000	13.707606  
543.000000	13.052780  
543.500000	12.110787  
544.000000	11.622598  
544.500000	11.517545  
545.000000	11.533931  
545.500000	10.985424  
546.000000	10.188409  
546.500000	9.418265   
547.000000	9.055772   
547.500000	8.771219   
548.000000	8.459984   
548.500000	7.908159   
549.000000	7.379462   
549.500000	6.870666   
550.000000	6.264371   
550.500000	5.601340   
551.000000	5.127015   
551.500000	4.751424   
552.000000	4.293749   
552.500000	3.811992   
553.000000	3.384439   
553.500000	3.334878   
554.000000	3.363674   
554.500000	3.381303   
555.000000	3.288371   
555.500000	3.191757   
556.000000	3.044469   
556.500000	3.127803   
557.000000	3.375696   
557.500000	3.646030   
558.000000	3.601628   
558.500000	3.435803   
559.000000	3.259159   
559.500000	3.217053   
560.000000	3.087742   
560.500000	2.996295   
561.000000	2.946166   
561.500000	3.022560   
562.000000	3.155878   
562.500000	3.249143   
563.000000	3.212674   
563.500000	3.151303   
564.000000	3.133454   
564.500000	3.203204   
565.000000	3.205969   
565.500000	3.173174   
566.000000	3.194106   
566.500000	3.224234   
567.000000	3.171409   
567.500000	3.045992   
568.000000	2.995575   
568.500000	3.188568   
569.000000	3.485174   
569.500000	3.665681   
570.000000	3.470401   
570.500000	3.253446   
571.000000	3.182666   
571.500000	3.320409   
572.000000	3.237931   
572.500000	3.198310   
573.000000	3.207901   
573.500000	3.330500   
574.000000	3.245083   
574.500000	3.066916   
575.000000	3.022037   
575.500000	3.122113   
576.000000	3.225189   
576.500000	3.331583   
577.000000	3.523939   
577.500000	3.640689   
578.000000	3.692696   
578.500000	3.698219   
579.000000	3.764734   
579.500000	3.837030   
580.000000	3.655651   
580.500000	3.347848   
581.000000	3.078840   
581.500000	3.079037   
582.000000	3.208560   
582.500000	3.268840   
583.000000	3.174689   
583.500000	3.169803   
584.000000	3.459310   
584.500000	3.780212   
585.000000	3.993234   
585.500000	3.909113   
586.000000	3.847659   
586.500000	3.704280   
587.000000	3.545712   
587.500000	3.310643   
588.000000	3.290765   
588.500000	3.430681   
589.000000	3.639530   
589.500000	3.639628   
590.000000	3.665143   
590.500000	3.885712   
591.000000	4.151068   
591.500000	4.201583   
592.000000	4.182719   
592.500000	4.130204   
593.000000	4.253833   
593.500000	4.364909   
594.000000	4.493734   
594.500000	4.433075   
595.000000	4.516704   
595.500000	4.791075   
596.000000	5.178553   
596.500000	5.232575   
597.000000	5.063030   
597.500000	5.084143   
598.000000	5.182356   
598.500000	5.283098   
599.000000	5.320886   
599.500000	5.484734   
600.000000	5.628083   
600.500000	5.868212   
601.000000	6.211818   
601.500000	6.593121   
602.000000	6.749212   
602.500000	6.738780   
603.000000	6.741545   
603.500000	7.018401   
604.000000	7.555863   
604.500000	7.739946   
605.000000	7.519795   
605.500000	7.031931   
606.000000	7.063492   
606.500000	7.405560   
607.000000	8.042287   
607.500000	8.508060   
608.000000	8.855007   
608.500000	9.022045   
609.000000	9.335295   
609.500000	9.828522   
610.000000	10.043181  
610.500000	10.213242  
611.000000	10.404227  
611.500000	10.925484  
612.000000	11.275128  
612.500000	11.666674  
613.000000	12.010037  
613.500000	12.343204  
614.000000	12.346045  
614.500000	12.735257  
615.000000	13.802515  
615.500000	14.850666  
616.000000	15.006045  
616.500000	14.575515  
617.000000	14.590643  
617.500000	15.328242  
618.000000	16.373121  
618.500000	17.290871  
619.000000	17.983946  
619.500000	18.640272  
620.000000	19.209719  
620.500000	19.975386  
621.000000	20.749348  
621.500000	21.855522  
622.000000	22.782681  
622.500000	23.275984  
623.000000	23.421765  
623.500000	24.099856  
624.000000	25.192545  
624.500000	26.378393  
625.000000	27.460674  
625.500000	28.558909  
626.000000	29.280356  
626.500000	30.217174  
627.000000	31.024848  
627.500000	32.201575  
628.000000	33.433628  
628.500000	35.108401  
629.000000	36.486537  
629.500000	37.344098  
630.000000	38.336833  
630.500000	40.174939  
631.000000	42.032340  
631.500000	42.610219  
632.000000	42.683871  
632.500000	43.099643  
633.000000	44.678848  
633.500000	47.235840  
634.000000	50.029621  
634.500000	51.483719  
635.000000	51.970901  
635.500000	52.450765  
636.000000	54.354969  
636.500000	56.457666  
637.000000	58.182257  
637.500000	59.196568  
638.000000	60.695636  
638.500000	62.394954  
639.000000	64.621818  
639.500000	66.985856  
640.000000	69.189893  
640.500000	71.322348  
641.000000	73.056598  
641.500000	74.207424  
642.000000	74.540742  
642.500000	75.520007  
643.000000	77.132280  
643.500000	79.894121  
644.000000	81.726098  
644.500000	83.445121  
645.000000	85.095068  
645.500000	87.656583  
646.000000	89.540803  
646.500000	92.008765  
647.000000	94.066901  
647.500000	96.087409  
648.000000	97.595189  
648.500000	98.432840  
649.000000	99.465227  
649.500000	100.742636 
650.000000	103.305492 
650.500000	106.253984 
651.000000	109.849030 
651.500000	112.001212 
652.000000	113.713537 
652.500000	114.377462 
653.000000	115.005500 
653.500000	115.959727 
654.000000	117.831227 
654.500000	120.502227 
655.000000	122.644598 
655.500000	124.074333 
656.000000	124.223159 
656.500000	125.167272 
657.000000	126.373909 
657.500000	128.766734 
658.000000	131.158507 
658.500000	133.076128 
659.000000	133.782568 
659.500000	134.516204 
660.000000	135.548113 
660.500000	136.337280 
661.000000	137.273363 
661.500000	138.381121 
662.000000	140.349477 
662.500000	142.483143 
663.000000	143.602363 
663.500000	143.236325 
664.000000	142.149704 
664.500000	142.877492 
665.000000	145.236310 
665.500000	147.977219 
666.000000	148.989590 
666.500000	149.342651 
667.000000	148.838992 
667.500000	148.351606 
668.000000	147.839462 
668.500000	148.853962 
669.000000	149.789219 
669.500000	150.257075 
670.000000	149.065295 
670.500000	148.623431 
671.000000	147.819136 
671.500000	146.841257 
672.000000	144.264545 
672.500000	143.647659 
673.000000	144.843757 
673.500000	147.543765 
674.000000	147.480227 
674.500000	145.809651 
675.000000	142.929689 
675.500000	141.325363 
676.000000	140.074992 
676.500000	139.134060 
677.000000	137.926446 
677.500000	136.704568 
678.000000	134.842500 
678.500000	133.397068 
679.000000	133.144704 
679.500000	132.865098 
680.000000	131.138333 
680.500000	127.700780 
681.000000	125.129083 
681.500000	123.930909 
682.000000	122.764772 
682.500000	120.517181 
683.000000	117.597166 
683.500000	114.680022 
684.000000	112.056083 
684.500000	110.502810 
685.000000	108.379272 
685.500000	106.308742 
686.000000	103.960901 
686.500000	103.205386 
687.000000	102.249174 
687.500000	100.232515 
688.000000	96.517840  
688.500000	93.303363  
689.000000	91.477469  
689.500000	90.264712  
690.000000	87.848310  
690.500000	85.013734  
691.000000	82.393227  
691.500000	80.181825  
692.000000	77.178681  
692.500000	74.222492  
693.000000	71.806621  
693.500000	70.237257  
694.000000	68.910583  
694.500000	67.812818  
695.000000	66.202431  
695.500000	63.989462  
696.000000	61.651106  
696.500000	59.877984  
697.000000	57.751227  
697.500000	55.742818  
698.000000	53.519136  
698.500000	51.805219  
699.000000	50.000356  
699.500000	48.750060  
700.000000	47.610863  
700.500000	47.000704  
701.000000	46.545098  
701.500000	46.021409  
702.000000	44.385106  
702.500000	42.251280  
703.000000	40.591098  
703.500000	39.904242  
704.000000	38.958113  
704.500000	37.181053  
705.000000	35.124583  
705.500000	33.735712  
706.000000	33.109568  
706.500000	32.400174  
707.000000	31.559598  
707.500000	30.822560  
708.000000	30.760393  
708.500000	29.910174  
709.000000	28.324886  
709.500000	26.612719  
710.000000	26.244719  
710.500000	25.545128  
711.000000	24.614560  
711.500000	23.535515  
712.000000	23.792303  
712.500000	23.741757  
713.000000	23.115568  
713.500000	21.843401  
714.000000	21.165265  
714.500000	20.890727  
715.000000	20.776227  
715.500000	20.627416  
716.000000	20.140401  
716.500000	19.566606  
717.000000	18.608924  
717.500000	18.113409  
718.000000	17.931530  
718.500000	17.857795  
719.000000	17.146106  
719.500000	16.364545  
720.000000	15.704924  
720.500000	15.417833  
721.000000	15.138750  
721.500000	14.867196  
722.000000	14.488613  
722.500000	14.233227  
723.000000	13.756393  
723.500000	13.321196  
724.000000	12.746492  
724.500000	12.425287  
725.000000	12.245537  
725.500000	12.142553  
726.000000	11.891901  
726.500000	11.312386  
727.000000	10.584765  
727.500000	10.028878  
728.000000	9.972946   
728.500000	10.153568  
729.000000	10.213265  
729.500000	9.995204   
730.000000	9.473749   
730.500000	9.050037   
731.000000	8.878098   
731.500000	8.947462   
732.000000	8.661871   
732.500000	8.468143   
733.000000	8.423848   
733.500000	8.596492   
734.000000	8.490780   
734.500000	8.156916   
735.000000	7.840689   
735.500000	7.774939   
736.000000	7.800234   
736.500000	7.802090   
737.000000	7.626424   
737.500000	7.183492   
738.000000	6.792803   
738.500000	6.694303   
739.000000	6.875621   
739.500000	7.005621   
740.000000	6.901439   
740.500000	6.795287   
741.000000	6.800734   
741.500000	6.721924   
742.000000	6.526318   
742.500000	6.274568   
743.000000	6.130416   
743.500000	5.985318   
744.000000	5.850825   
744.500000	5.689931   
745.000000	5.633037   
745.500000	5.625424   
746.000000	5.581257   
746.500000	5.439106   
747.000000	5.413045   
747.500000	5.601833   
748.000000	5.695712   
748.500000	5.557757   
749.000000	5.141446   
749.500000	4.883242   
750.000000	4.818537   
750.500000	4.922818   
751.000000	4.833696   
751.500000	4.762909   
752.000000	4.757484   
752.500000	4.690022   
753.000000	4.433159   
753.500000	4.234318   
754.000000	4.258431   
754.500000	4.335363   
755.000000	4.233499   
755.500000	4.168787   
756.000000	4.190787   
756.500000	4.162083   
757.000000	3.931371   
757.500000	3.853674   
758.000000	3.801780   
758.500000	4.014083   
759.000000	4.158136   
759.500000	4.305083   
760.000000	4.127166   
760.500000	3.932636   
761.000000	3.688863   
761.500000	3.701280   
762.000000	3.603545   
762.500000	3.584249   
763.000000	3.704621   
763.500000	3.933962   
764.000000	3.909742   
764.500000	3.595181   
765.000000	3.419734   
765.500000	3.619015   
766.000000	3.914840   
766.500000	4.123037   
767.000000	4.071515   
767.500000	3.868462   
768.000000	3.534712   
768.500000	3.399015   
769.000000	3.345856   
769.500000	3.236310   
770.000000	2.969250   
770.500000	2.881893   
771.000000	3.026356   
771.500000	3.191242   
772.000000	3.282833   
772.500000	3.230848   
773.000000	3.216924   
773.500000	3.223628   
774.000000	3.250492   
774.500000	3.146113   
775.000000	3.051712   
775.500000	2.956946   
776.000000	2.919954   
776.500000	2.853310   
777.000000	2.869840   
777.500000	2.925318   
778.000000	3.027446   
778.500000	2.944560   
779.000000	2.868128   
779.500000	2.779969   
780.000000	2.839977   
780.500000	2.819098   
781.000000	2.724810   
781.500000	2.578015   
782.000000	2.637674   
782.500000	2.883409   
783.000000	3.042325   
783.500000	2.968575   
784.000000	2.608575   
784.500000	2.387621   
785.000000	2.374234   
785.500000	2.554143   
786.000000	2.600484   
786.500000	2.703666   
787.000000	2.821787   
787.500000	2.952916   
788.000000	2.993696   
788.500000	2.814659   
789.000000	2.556583   
789.500000	2.273219   
790.000000	2.362234   
790.500000	2.591022   
791.000000	2.823469   
791.500000	2.698780   
792.000000	2.526886   
792.500000	2.353795   
793.000000	2.371500   
793.500000	2.469446   
794.000000	2.551159   
794.500000	2.511833   
795.000000	2.455590   
795.500000	2.309295   
796.000000	2.159818   
796.500000	2.073613   
797.000000	2.129454   
797.500000	2.231757   
798.000000	2.338083   
798.500000	2.465272   
799.000000	2.518196   
799.500000	2.379871   
800.000000	2.018143   
800.500000	1.834007   
801.000000	1.881090   
801.500000	2.080075   
802.000000	2.189621   
802.500000	2.149681   
803.000000	1.902446   
803.500000	1.632962   
804.000000	1.466659   
804.500000	1.545545   
805.000000	1.598825   
805.500000	1.559204   
806.000000	1.472136   
806.500000	1.656196   
807.000000	1.870863   
807.500000	1.984499   
808.000000	1.798522   
808.500000	1.527651   
809.000000	1.459303   
809.500000	1.502219   
810.000000	1.481606   
810.500000	1.183045   
811.000000	1.087401   
811.500000	1.163568   
812.000000	1.475545   
812.500000	1.509424   
813.000000	1.406348   
813.500000	1.298924   
814.000000	1.414977   
814.500000	1.598151   
815.000000	1.690628   
815.500000	1.683166   
816.000000	1.663636   
816.500000	1.804477   
817.000000	1.903515   
817.500000	1.847212   
818.000000	1.694393   
818.500000	1.545568   
819.000000	1.625439   
819.500000	1.690636   
820.000000	1.836795   
820.500000	1.738954   
821.000000	1.648742   
821.500000	1.509500   
822.000000	1.855742   
822.500000	2.353219   
823.000000	2.791166   
823.500000	2.804378   
824.000000	2.652500   
824.500000	2.431075   
825.000000	2.344045   
825.500000	2.329931   
826.000000	2.342636   
826.500000	2.376909   
827.000000	2.440734   
827.500000	2.487477   
828.000000	2.243333   
828.500000	1.815128   
829.000000	1.352613   
829.500000	1.230659   
830.000000	1.227340   
830.500000	1.267613   
831.000000	1.226666   
831.500000	1.274310   
832.000000	1.334143   
832.500000	1.297924   
833.000000	1.142128   
833.500000	1.057704   
834.000000	1.097848   
834.500000	1.068022   
835.000000	0.903780   
835.500000	0.753280   
836.000000	0.785340   
836.500000	0.887181   
837.000000	0.962462   
837.500000	0.956174   
838.000000	1.016613   
838.500000	0.976666   
839.000000	0.858628   
839.500000	0.733757   
840.000000	0.754477   
840.500000	0.712113   
841.000000	0.643249   
841.500000	0.645674   
842.000000	0.774946   
842.500000	0.857022   
843.000000	0.780992   
843.500000	0.671492   
844.000000	0.566045   
844.500000	0.618954   
845.000000	0.640878   
845.500000	0.676553   
846.000000	0.380143   
846.500000	0.119431   
847.000000	-0.057022  
847.500000	0.127765   
848.000000	0.342522   
848.500000	0.434568   
849.000000	0.223196   
849.500000	-0.003492  
850.000000	0.011825   
850.500000	0.151818   
851.000000	0.221810   
851.500000	0.118310   
852.000000	0.048984   
852.500000	0.016636   
853.000000	0.032113   
853.500000	0.091727   
854.000000	0.200401   
854.500000	0.209613   
855.000000	0.120977   
855.500000	0.053712   
856.000000	0.144348   
856.500000	0.238227   
857.000000	0.197401   
857.500000	0.015757   
858.000000	-0.155234  
858.500000	-0.150886  
859.000000	-0.001439  
859.500000	0.141643   
860.000000	0.089613   
860.500000	0.006825   
861.000000	-0.057522  
861.500000	-0.080333  
862.000000	-0.171303  
862.500000	-0.129560  
863.000000	0.002484   
863.500000	0.148863   
864.000000	0.081242   
864.500000	-0.022106  
865.000000	-0.071121  
865.500000	-0.021386  
866.000000	-0.115431  
866.500000	-0.155651  
867.000000	-0.013803  
867.500000	0.266401   
868.000000	0.256863   
868.500000	0.064265   
869.000000	-0.095674  
869.500000	0.029242   
870.000000	0.128500   
870.500000	0.079060   
871.000000	-0.084272  
871.500000	-0.151469  
872.000000	-0.133803  
872.500000	-0.036318  
873.000000	-0.016477  
873.500000	-0.119537  
874.000000	-0.268151  
874.500000	-0.327234  
875.000000	-0.249727  
875.500000	-0.140848  
876.000000	-0.107340  
876.500000	-0.154893  
877.000000	-0.079401  
877.500000	0.029348   
878.000000	0.115416   
878.500000	0.116431   
879.000000	0.091553   
879.500000	0.044553   
880.000000	-0.023750  
880.500000	0.025916   
881.000000	0.117386   
881.500000	0.235287   
882.000000	0.184553   
882.500000	0.127159   
883.000000	0.053901   
883.500000	-0.008575  
884.000000	-0.089128  
884.500000	-0.132189  
885.000000	-0.084000  
885.500000	-0.034295  
886.000000	-0.013818  
886.500000	-0.063598  
887.000000	-0.052371  
887.500000	-0.087166  
888.000000	-0.149537  
888.500000	-0.223583  
889.000000	-0.165954  
889.500000	-0.088803  
890.000000	-0.021060  
890.500000	-0.131401  
891.000000	-0.191234  
891.500000	-0.220196  
892.000000	-0.123939  
892.500000	-0.002643  
893.000000	0.085674   
893.500000	0.063265   
894.000000	-0.037348  
894.500000	-0.065962  
895.000000	-0.068545  
895.500000	0.003045   
896.000000	-0.016810  
896.500000	-0.082287  
897.000000	-0.152916  
897.500000	-0.155151  
898.000000	-0.023560  
898.500000	0.053840   
899.000000	0.029583   
899.500000	-0.129931  
900.000000	-0.193378  
900.500000	-0.200000  

