PE FL                   SPECTRUM    ASCII       PEDS        1.60        
  -1
S12R#43.SP
24/04/15
16:39:34.00
24/04/15
16:41:00.00
Jan

900.500000
1









LS55
405.00
5.00
5.00
SCAN
1
20
100
100
0
400
0
1
0
1
5
ON
900 405 
1 0 0
#HDR
-1
-1
#GR
NM

0.00002384185791015625
0.0
450.000000
0.500000
902
8
157.576772
-0.446068
#DATA
450.000000	0.431000   
450.500000	-0.042393  
451.000000	-0.231363  
451.500000	-0.103303  
452.000000	-0.028166  
452.500000	-0.098431  
453.000000	-0.295621  
453.500000	-0.352083  
454.000000	-0.286606  
454.500000	-0.144363  
455.000000	-0.099992  
455.500000	-0.071113  
456.000000	-0.045181  
456.500000	-0.008765  
457.000000	-0.003666  
457.500000	-0.047234  
458.000000	-0.081765  
458.500000	-0.140772  
459.000000	-0.238825  
459.500000	-0.292136  
460.000000	-0.242992  
460.500000	-0.133454  
461.000000	-0.061151  
461.500000	-0.127159  
462.000000	-0.229143  
462.500000	-0.174242  
463.000000	-0.083803  
463.500000	-0.096848  
464.000000	-0.197666  
464.500000	-0.207704  
465.000000	-0.122712  
465.500000	-0.077136  
466.000000	-0.056643  
466.500000	-0.064454  
467.000000	-0.163401  
467.500000	-0.229257  
468.000000	-0.156484  
468.500000	0.097772   
469.000000	0.170568   
469.500000	0.110939   
470.000000	-0.103636  
470.500000	-0.070780  
471.000000	0.031409   
471.500000	0.236333   
472.000000	0.107931   
472.500000	-0.088083  
473.000000	-0.250757  
473.500000	-0.153507  
474.000000	-0.043757  
474.500000	-0.040378  
475.000000	-0.160363  
475.500000	-0.172984  
476.000000	-0.002045  
476.500000	0.122333   
477.000000	0.080613   
477.500000	-0.050340  
478.000000	-0.083810  
478.500000	-0.109787  
479.000000	-0.089446  
479.500000	-0.024727  
480.000000	0.044106   
480.500000	-0.085348  
481.000000	-0.296500  
481.500000	-0.446068  
482.000000	-0.359348  
482.500000	-0.227909  
483.000000	-0.054651  
483.500000	-0.010651  
484.000000	0.067712   
484.500000	-0.010280  
485.000000	-0.062621  
485.500000	-0.209265  
486.000000	-0.117727  
486.500000	-0.107151  
487.000000	-0.106166  
487.500000	-0.333977  
488.000000	-0.386840  
488.500000	-0.396189  
489.000000	-0.241590  
489.500000	-0.037909  
490.000000	0.226681   
490.500000	0.300666   
491.000000	0.182022   
491.500000	0.090530   
492.000000	0.175689   
492.500000	0.287045   
493.000000	0.269068   
493.500000	0.139325   
494.000000	0.033856   
494.500000	-0.033431  
495.000000	-0.000310  
495.500000	0.059446   
496.000000	0.085916   
496.500000	0.090750   
497.000000	0.157939   
497.500000	0.219431   
498.000000	0.231886   
498.500000	0.232007   
499.000000	0.354515   
499.500000	0.554257   
500.000000	0.772090   
500.500000	0.863863   
501.000000	0.878530   
501.500000	0.810106   
502.000000	0.855954   
502.500000	0.959287   
503.000000	1.084303   
503.500000	1.043606   
504.000000	0.882651   
504.500000	0.713984   
505.000000	0.764924   
505.500000	0.948454   
506.000000	1.311848   
506.500000	1.726121   
507.000000	1.968522   
507.500000	1.942234   
508.000000	1.881386   
508.500000	2.075939   
509.000000	2.356121   
509.500000	2.282946   
510.000000	1.977856   
510.500000	1.824083   
511.000000	2.029568   
511.500000	2.277151   
512.000000	2.402659   
512.500000	2.347265   
513.000000	2.542765   
513.500000	2.893803   
514.000000	3.165015   
514.500000	3.077060   
515.000000	2.974060   
515.500000	2.909181   
516.000000	3.078628   
516.500000	3.136060   
517.000000	3.154568   
517.500000	2.911893   
518.000000	2.864462   
518.500000	2.897590   
519.000000	3.221621   
519.500000	3.340575   
520.000000	3.406242   
520.500000	3.383575   
521.000000	3.482893   
521.500000	3.554265   
522.000000	3.589166   
522.500000	3.413295   
523.000000	3.237848   
523.500000	3.282962   
524.000000	3.427386   
524.500000	3.571840   
525.000000	3.546765   
525.500000	3.707833   
526.000000	3.801121   
526.500000	4.182250   
527.000000	4.490522   
527.500000	4.781393   
528.000000	4.665037   
528.500000	4.566166   
529.000000	4.464939   
529.500000	4.530719   
530.000000	4.660272   
530.500000	4.948575   
531.000000	5.170287   
531.500000	5.187060   
532.000000	5.057386   
532.500000	5.264590   
533.000000	5.731787   
533.500000	6.463613   
534.000000	7.176719   
534.500000	7.595689   
535.000000	7.728500   
535.500000	7.810477   
536.000000	8.187689   
536.500000	8.879575   
537.000000	9.751477   
537.500000	10.370280  
538.000000	10.749295  
538.500000	11.020522  
539.000000	11.376477  
539.500000	11.976303  
540.000000	12.578250  
540.500000	13.212037  
541.000000	13.662416  
541.500000	13.921181  
542.000000	13.729530  
542.500000	13.541227  
543.000000	13.162500  
543.500000	12.875946  
544.000000	12.495295  
544.500000	12.268250  
545.000000	11.875189  
545.500000	11.215325  
546.000000	10.394818  
546.500000	9.765060   
547.000000	9.478333   
547.500000	9.191196   
548.000000	8.676583   
548.500000	7.779795   
549.000000	6.924734   
549.500000	6.437303   
550.000000	5.927424   
550.500000	5.508000   
551.000000	4.984651   
551.500000	4.726249   
552.000000	4.214651   
552.500000	3.980462   
553.000000	3.923750   
553.500000	4.169136   
554.000000	3.966136   
554.500000	3.831416   
555.000000	3.586909   
555.500000	3.335189   
556.000000	2.970492   
556.500000	3.009219   
557.000000	3.223340   
557.500000	3.479886   
558.000000	3.400537   
558.500000	3.300689   
559.000000	3.240522   
559.500000	3.241075   
560.000000	3.230984   
560.500000	3.189083   
561.000000	3.266537   
561.500000	3.369000   
562.000000	3.460462   
562.500000	3.285962   
563.000000	3.160431   
563.500000	3.047742   
564.000000	3.020583   
564.500000	2.955439   
565.000000	2.995113   
565.500000	3.057295   
566.000000	3.222848   
566.500000	3.338409   
567.000000	3.366348   
567.500000	3.291507   
568.000000	3.263984   
568.500000	3.225106   
569.000000	3.220409   
569.500000	3.182030   
570.000000	3.294318   
570.500000	3.407590   
571.000000	3.376606   
571.500000	3.306196   
572.000000	3.244856   
572.500000	3.246712   
573.000000	3.151454   
573.500000	3.157568   
574.000000	3.197462   
574.500000	3.410507   
575.000000	3.513143   
575.500000	3.507590   
576.000000	3.243106   
576.500000	2.937121   
577.000000	2.787416   
577.500000	2.942772   
578.000000	3.316909   
578.500000	3.482863   
579.000000	3.335219   
579.500000	3.137992   
580.000000	3.346734   
580.500000	3.639416   
581.000000	3.730477   
581.500000	3.432083   
582.000000	3.352174   
582.500000	3.394348   
583.000000	3.630439   
583.500000	3.726219   
584.000000	3.780553   
584.500000	3.565242   
585.000000	3.325174   
585.500000	3.145265   
586.000000	3.151810   
586.500000	3.282303   
587.000000	3.625196   
587.500000	4.035189   
588.000000	4.100424   
588.500000	3.918356   
589.000000	3.800659   
589.500000	3.938765   
590.000000	4.117030   
590.500000	4.048409   
591.000000	3.986022   
591.500000	3.911378   
592.000000	3.956424   
592.500000	4.006287   
593.000000	4.365583   
593.500000	4.772022   
594.000000	5.247598   
594.500000	5.252113   
595.000000	4.942696   
595.500000	4.589795   
596.000000	4.574053   
596.500000	4.856424   
597.000000	5.012803   
597.500000	5.079356   
598.000000	4.906742   
598.500000	4.793787   
599.000000	4.702803   
599.500000	5.035113   
600.000000	5.406212   
600.500000	5.796431   
601.000000	5.920310   
601.500000	6.111901   
602.000000	6.183871   
602.500000	6.370765   
603.000000	6.660189   
603.500000	6.995568   
604.000000	7.143159   
604.500000	7.046075   
605.000000	7.035568   
605.500000	7.210181   
606.000000	7.629333   
606.500000	7.968454   
607.000000	8.298333   
607.500000	8.407992   
608.000000	8.662946   
608.500000	8.724060   
609.000000	8.909310   
609.500000	8.981409   
610.000000	9.468015   
610.500000	9.989007   
611.000000	10.273924  
611.500000	10.125356  
612.000000	10.340916  
612.500000	11.065704  
613.000000	11.756636  
613.500000	12.158189  
614.000000	12.481719  
614.500000	12.969500  
615.000000	13.358909  
615.500000	13.740250  
616.000000	14.238106  
616.500000	14.839553  
617.000000	15.487424  
617.500000	16.041628  
618.000000	16.473606  
618.500000	17.206681  
619.000000	18.386015  
619.500000	19.436522  
620.000000	19.664174  
620.500000	19.407901  
621.000000	19.565439  
621.500000	20.204500  
622.000000	20.761325  
622.500000	21.260007  
623.000000	22.049848  
623.500000	23.384424  
624.000000	25.131136  
624.500000	26.514287  
625.000000	27.470416  
625.500000	28.249992  
626.000000	29.503098  
626.500000	30.191174  
627.000000	30.503022  
627.500000	30.373628  
628.000000	31.270393  
628.500000	32.533772  
629.000000	33.991257  
629.500000	35.281106  
630.000000	36.694143  
630.500000	38.196901  
631.000000	39.628310  
631.500000	40.898666  
632.000000	41.706280  
632.500000	42.981962  
633.000000	44.612424  
633.500000	46.394083  
634.000000	47.393083  
634.500000	49.069712  
635.000000	52.024863  
635.500000	55.317242  
636.000000	56.710022  
636.500000	56.474378  
637.000000	56.830310  
637.500000	58.043242  
638.000000	59.972621  
638.500000	61.444742  
639.000000	63.808515  
639.500000	66.297780  
640.000000	68.811424  
640.500000	70.445689  
641.000000	72.160696  
641.500000	74.170575  
642.000000	76.410863  
642.500000	78.865424  
643.000000	80.746810  
643.500000	82.345954  
644.000000	83.274863  
644.500000	84.809643  
645.000000	86.444681  
645.500000	88.099750  
646.000000	89.632621  
646.500000	91.715689  
647.000000	93.660863  
647.500000	95.885901  
648.000000	98.114325  
648.500000	100.470159 
649.000000	102.762742 
649.500000	104.617053 
650.000000	106.153439 
650.500000	106.978871 
651.000000	108.567446 
651.500000	111.331272 
652.000000	114.864371 
652.500000	117.511969 
653.000000	118.887833 
653.500000	119.701280 
654.000000	120.203689 
654.500000	121.958287 
655.000000	124.213590 
655.500000	127.149075 
656.000000	129.054303 
656.500000	130.098659 
657.000000	130.711401 
657.500000	131.927696 
658.000000	134.189492 
658.500000	136.558696 
659.000000	138.435318 
659.500000	139.636871 
660.000000	140.615272 
660.500000	141.130810 
661.000000	141.611674 
661.500000	142.395598 
662.000000	144.051409 
662.500000	146.240280 
663.000000	147.964734 
663.500000	147.693106 
664.000000	147.298393 
664.500000	147.534318 
665.000000	149.037689 
665.500000	149.883689 
666.000000	151.181522 
666.500000	152.825439 
667.000000	155.804848 
667.500000	157.378977 
668.000000	157.249310 
668.500000	154.694257 
669.000000	152.879053 
669.500000	152.638696 
670.000000	155.292075 
670.500000	157.125340 
671.000000	157.576772 
671.500000	156.743772 
672.000000	156.596000 
672.500000	156.949477 
673.000000	156.676757 
673.500000	155.696984 
674.000000	154.412159 
674.500000	153.791909 
675.000000	152.700363 
675.500000	152.050568 
676.000000	152.073287 
676.500000	151.288340 
677.000000	148.978628 
677.500000	145.799659 
678.000000	145.465030 
678.500000	145.604280 
679.000000	145.110333 
679.500000	142.233984 
680.000000	140.344469 
680.500000	138.832924 
681.000000	137.205363 
681.500000	134.682340 
682.000000	132.274772 
682.500000	129.873386 
683.000000	127.796545 
683.500000	126.211083 
684.000000	124.193151 
684.500000	121.757553 
685.000000	118.748409 
685.500000	116.541462 
686.000000	114.694515 
686.500000	112.777007 
687.000000	109.459204 
687.500000	105.955553 
688.000000	102.908780 
688.500000	101.275810 
689.000000	99.699106  
689.500000	98.545939  
690.000000	96.791159  
690.500000	94.277128  
691.000000	90.951999  
691.500000	88.528143  
692.000000	86.478371  
692.500000	84.027613  
693.000000	81.802159  
693.500000	80.247454  
694.000000	78.773484  
694.500000	75.557742  
695.000000	72.214227  
695.500000	69.943431  
696.000000	69.132606  
696.500000	67.949749  
697.000000	65.746530  
697.500000	62.679863  
698.000000	59.949181  
698.500000	58.203606  
699.000000	56.986780  
699.500000	55.961696  
700.000000	54.447446  
700.500000	52.844840  
701.000000	51.079500  
701.500000	49.720765  
702.000000	48.226204  
702.500000	46.902424  
703.000000	45.512295  
703.500000	44.027674  
704.000000	42.370530  
704.500000	40.946833  
705.000000	40.360765  
705.500000	39.599765  
706.000000	38.460522  
706.500000	37.052583  
707.000000	35.749598  
707.500000	34.543553  
708.000000	33.743515  
708.500000	33.359962  
709.000000	32.756424  
709.500000	31.650840  
710.000000	29.955446  
710.500000	28.515439  
711.000000	27.886401  
711.500000	27.897098  
712.000000	27.797318  
712.500000	26.915530  
713.000000	25.759333  
713.500000	25.124000  
714.000000	24.933083  
714.500000	24.251265  
715.000000	23.015560  
715.500000	21.696234  
716.000000	20.917037  
716.500000	20.665886  
717.000000	20.262621  
717.500000	19.601007  
718.000000	18.860439  
718.500000	18.507212  
719.000000	18.199136  
719.500000	17.684106  
720.000000	17.031386  
720.500000	16.629128  
721.000000	16.335250  
721.500000	15.671833  
722.000000	15.080803  
722.500000	14.586234  
723.000000	14.600037  
723.500000	14.331492  
724.000000	14.095204  
724.500000	13.453787  
725.000000	13.229068  
725.500000	13.184303  
726.000000	13.501007  
726.500000	13.174484  
727.000000	12.469257  
727.500000	11.770378  
728.000000	11.604454  
728.500000	11.704401  
729.000000	11.564962  
729.500000	11.157106  
730.000000	10.671265  
730.500000	10.542128  
731.000000	10.396492  
731.500000	10.112742  
732.000000	9.641515   
732.500000	9.731060   
733.000000	9.772825   
733.500000	9.572659   
734.000000	9.060962   
734.500000	8.887030   
735.000000	8.747659   
735.500000	8.448871   
736.000000	7.950219   
736.500000	7.924333   
737.000000	8.117446   
737.500000	8.142545   
738.000000	7.838545   
738.500000	7.682734   
739.000000	7.610825   
739.500000	7.561628   
740.000000	7.266212   
740.500000	7.358393   
741.000000	7.570727   
741.500000	7.769265   
742.000000	7.331363   
742.500000	6.748318   
743.000000	6.168893   
743.500000	6.093037   
744.000000	6.150742   
744.500000	6.235303   
745.000000	6.179393   
745.500000	6.063909   
746.000000	5.941643   
746.500000	5.539128   
747.000000	5.322060   
747.500000	5.341446   
748.000000	5.551795   
748.500000	5.488984   
749.000000	5.496780   
749.500000	5.600856   
750.000000	5.858643   
750.500000	5.665477   
751.000000	5.304060   
751.500000	4.870977   
752.000000	4.730469   
752.500000	4.632886   
753.000000	4.662651   
753.500000	4.545969   
754.000000	4.640106   
754.500000	4.689787   
755.000000	4.650681   
755.500000	4.475651   
756.000000	4.342674   
756.500000	4.323340   
757.000000	4.309128   
757.500000	4.373143   
758.000000	4.457348   
758.500000	4.389431   
759.000000	4.135454   
759.500000	3.982962   
760.000000	3.991280   
760.500000	3.951204   
761.000000	3.846136   
761.500000	3.729439   
762.000000	3.794212   
762.500000	3.878287   
763.000000	4.000795   
763.500000	3.946878   
764.000000	3.822090   
764.500000	3.709689   
765.000000	3.736234   
765.500000	3.755583   
766.000000	3.721204   
766.500000	3.608772   
767.000000	3.484666   
767.500000	3.402765   
768.000000	3.394818   
768.500000	3.521348   
769.000000	3.635492   
769.500000	3.608939   
770.000000	3.362636   
770.500000	3.088856   
771.000000	3.039106   
771.500000	3.220522   
772.000000	3.302083   
772.500000	3.212272   
773.000000	3.072128   
773.500000	3.079681   
774.000000	3.112378   
774.500000	3.072787   
775.000000	3.000159   
775.500000	3.027189   
776.000000	3.186946   
776.500000	3.279401   
777.000000	3.265901   
777.500000	3.127984   
778.000000	3.031272   
778.500000	2.942598   
779.000000	2.941750   
779.500000	2.985280   
780.000000	3.023363   
780.500000	2.986318   
781.000000	2.871159   
781.500000	2.822439   
782.000000	2.813075   
782.500000	2.892893   
783.000000	2.955946   
783.500000	2.947469   
784.000000	2.830431   
784.500000	2.696348   
785.000000	2.693287   
785.500000	2.812643   
786.000000	2.908560   
786.500000	2.816393   
787.000000	2.705696   
787.500000	2.667151   
788.000000	2.805106   
788.500000	2.861143   
789.000000	2.890462   
789.500000	2.860772   
790.000000	2.839962   
790.500000	2.780454   
791.000000	2.834772   
791.500000	2.822015   
792.000000	2.683159   
792.500000	2.453598   
793.000000	2.396507   
793.500000	2.472280   
794.000000	2.435590   
794.500000	2.357954   
795.000000	2.289492   
795.500000	2.280272   
796.000000	2.192045   
796.500000	2.141901   
797.000000	2.118424   
797.500000	2.166287   
798.000000	2.287848   
798.500000	2.453477   
799.000000	2.541810   
799.500000	2.292083   
800.000000	1.960333   
800.500000	1.668295   
801.000000	1.744712   
801.500000	1.993204   
802.000000	2.242280   
802.500000	2.213507   
803.000000	2.170689   
803.500000	2.188666   
804.000000	2.294636   
804.500000	2.263803   
805.000000	2.141780   
805.500000	1.941893   
806.000000	1.931553   
806.500000	1.878037   
807.000000	1.833931   
807.500000	1.644977   
808.000000	1.727401   
808.500000	1.825712   
809.000000	1.914287   
809.500000	1.748984   
810.000000	1.672924   
810.500000	1.684439   
811.000000	1.659984   
811.500000	1.507939   
812.000000	1.297916   
812.500000	1.304583   
813.000000	1.470136   
813.500000	1.688196   
814.000000	1.729507   
814.500000	1.696272   
815.000000	1.647409   
815.500000	1.610659   
816.000000	1.658075   
816.500000	1.675007   
817.000000	1.607446   
817.500000	1.508628   
818.000000	1.595363   
818.500000	1.820598   
819.000000	1.866446   
819.500000	1.790803   
820.000000	1.686613   
820.500000	1.968174   
821.000000	2.148636   
821.500000	2.279439   
822.000000	2.075962   
822.500000	2.036454   
823.000000	2.050409   
823.500000	2.229121   
824.000000	2.371560   
824.500000	2.567424   
825.000000	2.777946   
825.500000	2.843075   
826.000000	2.679992   
826.500000	2.358181   
827.000000	2.074924   
827.500000	2.002651   
828.000000	2.018022   
828.500000	1.903727   
829.000000	1.641045   
829.500000	1.358000   
830.000000	1.157098   
830.500000	1.085136   
831.000000	1.167189   
831.500000	1.253022   
832.000000	1.307636   
832.500000	1.213492   
833.000000	1.080030   
833.500000	1.009469   
834.000000	1.000962   
834.500000	1.058492   
835.000000	1.126174   
835.500000	1.117977   
836.000000	1.068227   
836.500000	1.037522   
837.000000	1.051803   
837.500000	1.036318   
838.000000	0.977022   
838.500000	0.805249   
839.000000	0.644924   
839.500000	0.625765   
840.000000	0.667666   
840.500000	0.657704   
841.000000	0.539871   
841.500000	0.561037   
842.000000	0.641840   
842.500000	0.767075   
843.000000	0.708833   
843.500000	0.704310   
844.000000	0.644219   
844.500000	0.583015   
845.000000	0.429689   
845.500000	0.326212   
846.000000	0.322318   
846.500000	0.379803   
847.000000	0.393106   
847.500000	0.308295   
848.000000	0.230818   
848.500000	0.195219   
849.000000	0.143939   
849.500000	0.129136   
850.000000	0.189780   
850.500000	0.406863   
851.000000	0.469378   
851.500000	0.387416   
852.000000	0.141507   
852.500000	0.064636   
853.000000	0.018939   
853.500000	0.033939   
854.000000	0.053969   
854.500000	0.078325   
855.000000	0.091818   
855.500000	0.076833   
856.000000	0.112568   
856.500000	0.105840   
857.000000	0.043545   
857.500000	-0.050484  
858.000000	-0.066219  
858.500000	0.030681   
859.000000	0.078477   
859.500000	0.123909   
860.000000	0.034393   
860.500000	-0.054356  
861.000000	-0.175696  
861.500000	-0.186393  
862.000000	-0.084143  
862.500000	0.073795   
863.000000	0.188106   
863.500000	0.150030   
864.000000	0.061871   
864.500000	-0.059772  
865.000000	-0.074151  
865.500000	-0.016984  
866.000000	0.057893   
866.500000	0.084068   
867.000000	0.017939   
867.500000	-0.068053  
868.000000	-0.182090  
868.500000	-0.187280  
869.000000	-0.165893  
869.500000	-0.079545  
870.000000	-0.068681  
870.500000	-0.039257  
871.000000	-0.051121  
871.500000	-0.047901  
872.000000	-0.080954  
872.500000	-0.058106  
873.000000	-0.046212  
873.500000	-0.027446  
874.000000	-0.024090  
874.500000	-0.077613  
875.000000	-0.145886  
875.500000	-0.196515  
876.000000	-0.179590  
876.500000	-0.165537  
877.000000	-0.096212  
877.500000	0.004484   
878.000000	0.131204   
878.500000	0.137075   
879.000000	0.042393   
879.500000	-0.077128  
880.000000	-0.147303  
880.500000	-0.154310  
881.000000	-0.054969  
881.500000	0.023378   
882.000000	0.017287   
882.500000	-0.108409  
883.000000	-0.214446  
883.500000	-0.257030  
884.000000	-0.184272  
884.500000	-0.094704  
885.000000	-0.027075  
885.500000	0.061121   
886.000000	0.120886   
886.500000	0.061939   
887.000000	-0.068553  
887.500000	-0.120507  
888.000000	-0.029818  
888.500000	0.036946   
889.000000	0.033886   
889.500000	-0.047265  
890.000000	0.023750   
890.500000	0.071015   
891.000000	0.054515   
891.500000	-0.168151  
892.000000	-0.298462  
892.500000	-0.265037  
893.000000	-0.064159  
893.500000	0.028553   
894.000000	0.038181   
894.500000	-0.007568  
895.000000	-0.034454  
895.500000	-0.001022  
896.000000	0.063106   
896.500000	0.092810   
897.000000	0.043287   
897.500000	0.000121   
898.000000	0.023090   
898.500000	0.119787   
899.000000	0.180856   
899.500000	0.140689   
900.000000	-0.014590  
900.500000	-0.233000  

