PE FL                   SPECTRUM    ASCII       PEDS        1.60        
  -1
S12R#35.SP
24/04/15
16:28:10.00
24/04/15
16:29:35.00
Jan

900.500000
1









LS55
405.00
5.00
5.00
SCAN
1
20
100
100
0
400
0
1
0
1
5
ON
900 405 
1 0 0
#HDR
-1
-1
#GR
NM

0.00002384185791015625
0.0
450.000000
0.500000
902
8
168.667318
-0.393840
#DATA
450.000000	-0.067000  
450.500000	-0.202515  
451.000000	-0.201439  
451.500000	-0.018871  
452.000000	0.221962   
452.500000	0.336151   
453.000000	0.227128   
453.500000	-0.079492  
454.000000	-0.335340  
454.500000	-0.279250  
455.000000	-0.083265  
455.500000	0.020863   
456.000000	-0.062242  
456.500000	-0.084469  
457.000000	0.005977   
457.500000	0.011242   
458.000000	-0.192356  
458.500000	-0.354075  
459.000000	-0.393840  
459.500000	-0.269409  
460.000000	-0.120083  
460.500000	-0.048151  
461.000000	-0.072113  
461.500000	-0.074704  
462.000000	-0.011992  
462.500000	-0.056242  
463.000000	-0.247833  
463.500000	-0.345166  
464.000000	-0.067628  
464.500000	0.130151   
465.000000	0.059462   
465.500000	-0.162219  
466.000000	-0.135090  
466.500000	0.031598   
467.000000	0.126431   
467.500000	0.058143   
468.000000	0.027613   
468.500000	0.025378   
469.000000	0.026833   
469.500000	-0.029250  
470.000000	-0.063462  
470.500000	-0.147257  
471.000000	-0.237909  
471.500000	-0.278560  
472.000000	-0.115272  
472.500000	0.101575   
473.000000	0.167287   
473.500000	0.131136   
474.000000	0.139522   
474.500000	0.281363   
475.000000	0.359901   
475.500000	0.441825   
476.000000	0.404628   
476.500000	0.233621   
477.000000	-0.032446  
477.500000	-0.153113  
478.000000	0.024939   
478.500000	0.277772   
479.000000	0.341242   
479.500000	0.096636   
480.000000	-0.175530  
480.500000	-0.288234  
481.000000	-0.159446  
481.500000	-0.040287  
482.000000	0.001651   
482.500000	-0.123204  
483.000000	-0.202295  
483.500000	-0.212136  
484.000000	-0.135446  
484.500000	-0.111613  
485.000000	-0.083659  
485.500000	-0.136643  
486.000000	-0.154719  
486.500000	-0.237878  
487.000000	-0.193151  
487.500000	-0.080136  
488.000000	0.107780   
488.500000	0.107295   
489.000000	0.028166   
489.500000	-0.116136  
490.000000	-0.195310  
490.500000	-0.151075  
491.000000	0.026803   
491.500000	0.176143   
492.000000	0.164204   
492.500000	0.030000   
493.000000	0.014325   
493.500000	0.141363   
494.000000	0.256242   
494.500000	0.227742   
495.000000	0.124568   
495.500000	0.083969   
496.000000	0.244159   
496.500000	0.433075   
497.000000	0.467000   
497.500000	0.355295   
498.000000	0.354939   
498.500000	0.484151   
499.000000	0.653295   
499.500000	0.733674   
500.000000	0.781909   
500.500000	0.713659   
501.000000	0.517265   
501.500000	0.477295   
502.000000	0.598568   
502.500000	0.729037   
503.000000	0.651340   
503.500000	0.626060   
504.000000	0.852196   
504.500000	1.108242   
505.000000	1.147712   
505.500000	1.036272   
506.000000	1.102348   
506.500000	1.137257   
507.000000	1.280166   
507.500000	1.409924   
508.000000	1.682045   
508.500000	1.866113   
509.000000	2.062166   
509.500000	2.265856   
510.000000	2.389068   
510.500000	2.379348   
511.000000	2.361416   
511.500000	2.548757   
512.000000	2.648515   
512.500000	2.694007   
513.000000	2.670984   
513.500000	2.761689   
514.000000	2.863424   
514.500000	2.900280   
515.000000	2.807007   
515.500000	2.682712   
516.000000	2.712659   
516.500000	2.751537   
517.000000	2.780621   
517.500000	2.751022   
518.000000	2.785962   
518.500000	2.966681   
519.000000	3.136871   
519.500000	3.302204   
520.000000	3.315734   
520.500000	3.353689   
521.000000	3.202295   
521.500000	3.142234   
522.000000	3.017636   
522.500000	3.193371   
523.000000	3.517454   
523.500000	3.918310   
524.000000	4.158780   
524.500000	4.088007   
525.000000	3.798840   
525.500000	3.491037   
526.000000	3.448136   
526.500000	3.755734   
527.000000	4.331189   
527.500000	4.879712   
528.000000	5.080522   
528.500000	5.197022   
529.000000	5.368045   
529.500000	5.621068   
530.000000	5.683219   
530.500000	5.512909   
531.000000	5.468196   
531.500000	5.629242   
532.000000	5.901598   
532.500000	5.932386   
533.000000	6.018621   
533.500000	6.223583   
534.000000	6.894310   
534.500000	7.477712   
535.000000	7.843757   
535.500000	7.898060   
536.000000	8.304060   
536.500000	8.654484   
537.000000	9.181030   
537.500000	9.637840   
538.000000	10.468409  
538.500000	11.159113  
539.000000	11.688856  
539.500000	11.821159  
540.000000	12.092568  
540.500000	12.663113  
541.000000	13.585795  
541.500000	14.432340  
542.000000	14.352901  
542.500000	13.753045  
543.000000	13.374772  
543.500000	13.403636  
544.000000	12.856750  
544.500000	11.791189  
545.000000	10.850484  
545.500000	10.777795  
546.000000	10.922659  
546.500000	10.524174  
547.000000	9.579886   
547.500000	8.844954   
548.000000	8.412939   
548.500000	7.907795   
549.000000	7.009924   
549.500000	6.164310   
550.000000	5.570651   
550.500000	5.143901   
551.000000	4.744106   
551.500000	4.566583   
552.000000	4.439651   
552.500000	4.064825   
553.000000	3.484696   
553.500000	3.141818   
554.000000	3.204030   
554.500000	3.353371   
555.000000	3.350636   
555.500000	3.343931   
556.000000	3.399848   
556.500000	3.401128   
557.000000	3.394030   
557.500000	3.365780   
558.000000	3.405212   
558.500000	3.427159   
559.000000	3.533325   
559.500000	3.612651   
560.000000	3.502954   
560.500000	3.199575   
561.000000	3.156295   
561.500000	3.281469   
562.000000	3.449280   
562.500000	3.356583   
563.000000	3.171060   
563.500000	2.974765   
564.000000	3.073446   
564.500000	3.175356   
565.000000	3.255401   
565.500000	3.192742   
566.000000	3.179128   
566.500000	3.177765   
567.000000	3.238280   
567.500000	3.284689   
568.000000	3.383325   
568.500000	3.410234   
569.000000	3.379659   
569.500000	3.313886   
570.000000	3.266969   
570.500000	3.310886   
571.000000	3.388742   
571.500000	3.480371   
572.000000	3.551469   
572.500000	3.594772   
573.000000	3.480590   
573.500000	3.310507   
574.000000	3.225242   
574.500000	3.196340   
575.000000	3.165856   
575.500000	3.039893   
576.000000	3.008393   
576.500000	3.244363   
577.000000	3.570303   
577.500000	3.771469   
578.000000	3.667606   
578.500000	3.557916   
579.000000	3.542257   
579.500000	3.600484   
580.000000	3.515424   
580.500000	3.503159   
581.000000	3.541022   
581.500000	3.564621   
582.000000	3.596613   
582.500000	3.755590   
583.000000	3.834977   
583.500000	3.755712   
584.000000	3.517106   
584.500000	3.619962   
585.000000	3.819446   
585.500000	3.989227   
586.000000	3.738469   
586.500000	3.555946   
587.000000	3.443310   
587.500000	3.653204   
588.000000	3.854689   
588.500000	3.812333   
589.000000	3.420606   
589.500000	3.152159   
590.000000	3.353613   
590.500000	3.949984   
591.000000	4.321916   
591.500000	4.253446   
592.000000	3.844121   
592.500000	3.589340   
593.000000	3.548431   
593.500000	4.004113   
594.000000	4.387333   
594.500000	4.690068   
595.000000	4.730962   
595.500000	4.953098   
596.000000	4.987500   
596.500000	5.026386   
597.000000	4.890242   
597.500000	4.976916   
598.000000	4.982734   
598.500000	5.069287   
599.000000	5.121181   
599.500000	5.246590   
600.000000	5.118340   
600.500000	5.117083   
601.000000	5.398628   
601.500000	5.823810   
602.000000	6.072469   
602.500000	6.172022   
603.000000	6.420992   
603.500000	6.692568   
604.000000	6.951022   
604.500000	6.890174   
605.000000	6.902492   
605.500000	6.941166   
606.000000	7.230151   
606.500000	7.489522   
607.000000	7.653151   
607.500000	7.869022   
608.000000	8.171621   
608.500000	8.456477   
609.000000	8.660356   
609.500000	8.995015   
610.000000	9.143431   
610.500000	9.070265   
611.000000	8.902704   
611.500000	9.204871   
612.000000	9.900356   
612.500000	10.774757  
613.000000	11.373681  
613.500000	11.892250  
614.000000	12.425250  
614.500000	12.821196  
615.000000	12.996151  
615.500000	13.159037  
616.000000	13.624128  
616.500000	14.230060  
617.000000	14.654371  
617.500000	15.057446  
618.000000	15.673265  
618.500000	16.466689  
619.000000	17.072545  
619.500000	17.602795  
620.000000	17.848750  
620.500000	18.256681  
621.000000	18.823265  
621.500000	19.734212  
622.000000	20.618219  
622.500000	21.268310  
623.000000	21.875757  
623.500000	22.756803  
624.000000	24.032454  
624.500000	25.113962  
625.000000	26.456848  
625.500000	27.535871  
626.000000	28.385954  
626.500000	28.698969  
627.000000	29.510719  
627.500000	30.752265  
628.000000	32.181992  
628.500000	33.276250  
629.000000	34.196734  
629.500000	34.864818  
630.000000	35.649196  
630.500000	36.864022  
631.000000	38.426727  
631.500000	39.814734  
632.000000	41.127424  
632.500000	42.271272  
633.000000	43.550090  
633.500000	45.055765  
634.000000	46.730204  
634.500000	48.244636  
635.000000	49.642803  
635.500000	51.279075  
636.000000	52.773886  
636.500000	53.547318  
637.000000	54.091780  
637.500000	55.684803  
638.000000	58.176401  
638.500000	60.472727  
639.000000	62.238348  
639.500000	64.059219  
640.000000	66.573000  
640.500000	68.925227  
641.000000	71.051924  
641.500000	72.971840  
642.000000	74.671469  
642.500000	76.017098  
643.000000	77.579265  
643.500000	80.243204  
644.000000	83.179977  
644.500000	85.782189  
645.000000	87.755727  
645.500000	89.423825  
646.000000	90.422318  
646.500000	90.406560  
647.000000	91.055833  
647.500000	92.907287  
648.000000	96.005280  
648.500000	99.227613  
649.000000	103.149530 
649.500000	106.997757 
650.000000	110.108000 
650.500000	112.167310 
651.000000	114.119333 
651.500000	115.990030 
652.000000	117.444810 
652.500000	117.951628 
653.000000	118.863295 
653.500000	120.346856 
654.000000	122.584121 
654.500000	124.988545 
655.000000	127.015492 
655.500000	128.700553 
656.000000	130.112060 
656.500000	131.496424 
657.000000	132.945840 
657.500000	135.836356 
658.000000	139.805719 
658.500000	142.834818 
659.000000	143.747643 
659.500000	143.646030 
660.000000	145.448022 
660.500000	148.288530 
661.000000	151.018545 
661.500000	152.490818 
662.000000	153.260030 
662.500000	153.881704 
663.000000	155.507734 
663.500000	157.761348 
664.000000	159.167886 
664.500000	159.652606 
665.000000	159.603553 
665.500000	160.287022 
666.000000	160.936848 
666.500000	162.640121 
667.000000	164.999371 
667.500000	167.164454 
668.000000	167.894901 
668.500000	167.747825 
669.000000	167.406106 
669.500000	166.320348 
670.000000	166.163143 
670.500000	166.668643 
671.000000	168.311613 
671.500000	168.667318 
672.000000	167.777143 
672.500000	165.892734 
673.000000	165.465045 
673.500000	166.339196 
674.000000	167.290090 
674.500000	166.937469 
675.000000	165.864401 
675.500000	164.679507 
676.000000	163.827621 
676.500000	162.955454 
677.000000	162.556780 
677.500000	161.607143 
678.000000	159.833984 
678.500000	158.030083 
679.000000	157.094659 
679.500000	156.207946 
680.000000	154.544666 
680.500000	152.002553 
681.000000	150.453818 
681.500000	149.746310 
682.000000	148.104765 
682.500000	145.602477 
683.000000	142.858893 
683.500000	140.731515 
684.000000	138.394371 
684.500000	136.016818 
685.000000	133.995363 
685.500000	132.221704 
686.000000	129.742598 
686.500000	127.090780 
687.000000	124.901575 
687.500000	122.491151 
688.000000	120.126477 
688.500000	117.512075 
689.000000	114.623151 
689.500000	111.955378 
690.000000	108.505393 
690.500000	105.720553 
691.000000	103.490113 
691.500000	102.284431 
692.000000	99.754265  
692.500000	96.556409  
693.000000	93.380409  
693.500000	91.721181  
694.000000	90.044234  
694.500000	87.947628  
695.000000	85.543674  
695.500000	83.385939  
696.000000	81.103015  
696.500000	78.624742  
697.000000	76.062090  
697.500000	73.157265  
698.000000	71.025075  
698.500000	68.616272  
699.000000	66.724924  
699.500000	64.128659  
700.000000	62.779651  
700.500000	61.252863  
701.000000	60.214121  
701.500000	57.943583  
702.000000	55.966310  
702.500000	53.670098  
703.000000	51.817696  
703.500000	50.013598  
704.000000	48.624037  
704.500000	47.470378  
705.000000	46.909333  
705.500000	45.974227  
706.000000	44.513045  
706.500000	42.184560  
707.000000	40.257250  
707.500000	39.240886  
708.000000	39.348909  
708.500000	39.454696  
709.000000	38.817719  
709.500000	37.301090  
710.000000	35.818659  
710.500000	34.598712  
711.000000	33.384780  
711.500000	32.305765  
712.000000	31.561742  
712.500000	30.897598  
713.000000	29.987386  
713.500000	29.031022  
714.000000	28.355659  
714.500000	27.721681  
715.000000	26.785583  
715.500000	25.754545  
716.000000	24.830174  
716.500000	24.241818  
717.000000	23.565962  
717.500000	22.688537  
718.000000	21.827484  
718.500000	21.377659  
719.000000	20.823909  
719.500000	20.090560  
720.000000	19.361189  
720.500000	19.135416  
721.000000	18.984333  
721.500000	18.702151  
722.000000	18.331469  
722.500000	17.997522  
723.000000	17.352742  
723.500000	16.788628  
724.000000	16.362303  
724.500000	16.474696  
725.000000	16.344037  
725.500000	15.961075  
726.000000	14.990643  
726.500000	14.390287  
727.000000	13.988977  
727.500000	13.933636  
728.000000	13.380325  
728.500000	12.730840  
729.000000	12.240136  
729.500000	12.199469  
730.000000	12.228840  
730.500000	12.148280  
731.000000	11.928757  
731.500000	11.688030  
732.000000	11.483000  
732.500000	11.211189  
733.000000	11.007333  
733.500000	10.823689  
734.000000	10.890537  
734.500000	10.854416  
735.000000	10.612507  
735.500000	9.868992   
736.000000	9.321492   
736.500000	8.805871   
737.000000	8.819159   
737.500000	8.820734   
738.000000	8.895757   
738.500000	8.705219   
739.000000	8.406098   
739.500000	7.965007   
740.000000	7.412590   
740.500000	7.108886   
741.000000	7.113757   
741.500000	7.362659   
742.000000	7.261272   
742.500000	6.958340   
743.000000	6.757287   
743.500000	6.834000   
744.000000	7.007825   
744.500000	6.998265   
745.000000	6.728613   
745.500000	6.245257   
746.000000	5.982749   
746.500000	5.958128   
747.000000	6.201363   
747.500000	6.336704   
748.000000	6.350068   
748.500000	6.190272   
749.000000	6.073113   
749.500000	6.022340   
750.000000	5.996075   
750.500000	5.786643   
751.000000	5.360651   
751.500000	5.044424   
752.000000	4.898833   
752.500000	5.001803   
753.000000	5.092189   
753.500000	5.156303   
754.000000	5.011022   
754.500000	4.695666   
755.000000	4.581136   
755.500000	4.670484   
756.000000	4.713780   
756.500000	4.538045   
757.000000	4.421113   
757.500000	4.439530   
758.000000	4.346924   
758.500000	4.077833   
759.000000	3.772356   
759.500000	3.662477   
760.000000	3.621712   
760.500000	4.041015   
761.000000	4.458393   
761.500000	4.688477   
762.000000	4.258424   
762.500000	3.981484   
763.000000	3.988280   
763.500000	4.320621   
764.000000	4.243545   
764.500000	3.922560   
765.000000	3.598090   
765.500000	3.626643   
766.000000	3.818265   
766.500000	3.869378   
767.000000	3.699969   
767.500000	3.540765   
768.000000	3.589810   
768.500000	3.643022   
769.000000	3.572977   
769.500000	3.501780   
770.000000	3.529484   
770.500000	3.709803   
771.000000	3.745075   
771.500000	3.551121   
772.000000	3.133045   
772.500000	2.907439   
773.000000	2.958810   
773.500000	3.266212   
774.000000	3.309878   
774.500000	3.272818   
775.000000	3.180825   
775.500000	3.202931   
776.000000	3.146409   
776.500000	3.130530   
777.000000	3.028992   
777.500000	2.992787   
778.000000	2.881106   
778.500000	2.954272   
779.000000	3.068598   
779.500000	3.191568   
780.000000	3.150765   
780.500000	3.148916   
781.000000	3.103537   
781.500000	3.051007   
782.000000	2.897439   
782.500000	2.767439   
783.000000	2.777356   
783.500000	2.882174   
784.000000	2.966212   
784.500000	3.016212   
785.000000	3.004545   
785.500000	2.958856   
786.000000	2.879204   
786.500000	2.794621   
787.000000	2.727325   
787.500000	2.691651   
788.000000	2.688280   
788.500000	2.742310   
789.000000	2.729500   
789.500000	2.621803   
790.000000	2.552166   
790.500000	2.659681   
791.000000	2.862537   
791.500000	2.946280   
792.000000	2.769909   
792.500000	2.459401   
793.000000	2.309212   
793.500000	2.483030   
794.000000	2.765863   
794.500000	2.813181   
795.000000	2.597166   
795.500000	2.459454   
796.000000	2.386287   
796.500000	2.329568   
797.000000	2.206045   
797.500000	2.217598   
798.000000	2.243333   
798.500000	2.371696   
799.000000	2.399356   
799.500000	2.379553   
800.000000	2.162333   
800.500000	2.005840   
801.000000	1.947060   
801.500000	2.016431   
802.000000	1.964477   
802.500000	2.054356   
803.000000	2.028469   
803.500000	1.902856   
804.000000	1.659696   
804.500000	1.708318   
805.000000	1.886166   
805.500000	1.954446   
806.000000	1.730454   
806.500000	1.686803   
807.000000	1.803106   
807.500000	1.944765   
808.000000	1.916030   
808.500000	1.797969   
809.000000	1.639931   
809.500000	1.458734   
810.000000	1.299787   
810.500000	1.365931   
811.000000	1.577621   
811.500000	1.621969   
812.000000	1.545174   
812.500000	1.522469   
813.000000	1.696856   
813.500000	1.812681   
814.000000	1.614863   
814.500000	1.561969   
815.000000	1.639045   
815.500000	1.833022   
816.000000	1.660598   
816.500000	1.644257   
817.000000	1.552500   
817.500000	1.601409   
818.000000	1.511757   
818.500000	1.633946   
819.000000	1.699189   
819.500000	1.678856   
820.000000	1.702803   
820.500000	1.938242   
821.000000	2.176439   
821.500000	2.141909   
822.000000	2.038507   
822.500000	2.023742   
823.000000	2.126712   
823.500000	2.187439   
824.000000	2.230075   
824.500000	2.340113   
825.000000	2.517151   
825.500000	2.597007   
826.000000	2.440674   
826.500000	2.130454   
827.000000	1.869833   
827.500000	1.850606   
828.000000	1.902204   
828.500000	1.829893   
829.000000	1.521848   
829.500000	1.153060   
830.000000	0.956068   
830.500000	0.975462   
831.000000	1.110106   
831.500000	1.210121   
832.000000	1.172090   
832.500000	1.070886   
833.000000	1.022636   
833.500000	1.088212   
834.000000	1.146340   
834.500000	1.147833   
835.000000	1.113030   
835.500000	1.119363   
836.000000	1.112371   
836.500000	1.093734   
837.000000	1.036621   
837.500000	0.949969   
838.000000	0.879613   
838.500000	0.895598   
839.000000	0.979931   
839.500000	1.042575   
840.000000	0.967022   
840.500000	0.906136   
841.000000	0.833803   
841.500000	0.737696   
842.000000	0.507651   
842.500000	0.436060   
843.000000	0.624818   
843.500000	0.817666   
844.000000	0.725825   
844.500000	0.483848   
845.000000	0.355621   
845.500000	0.386250   
846.000000	0.438863   
846.500000	0.443121   
847.000000	0.398151   
847.500000	0.340840   
848.000000	0.234045   
848.500000	0.255878   
849.000000	0.290848   
849.500000	0.330803   
850.000000	0.233189   
850.500000	0.219295   
851.000000	0.297840   
851.500000	0.432219   
852.000000	0.351204   
852.500000	0.217795   
853.000000	0.150053   
853.500000	0.137750   
854.000000	0.148818   
854.500000	0.198310   
855.000000	0.357462   
855.500000	0.489356   
856.000000	0.520795   
856.500000	0.378787   
857.000000	0.189553   
857.500000	0.035719   
858.000000	-0.004022  
858.500000	-0.031704  
859.000000	-0.049409  
859.500000	-0.100666  
860.000000	-0.057772  
860.500000	-0.041863  
861.000000	0.030416   
861.500000	0.036060   
862.000000	0.055575   
862.500000	0.056537   
863.000000	0.060348   
863.500000	0.076909   
864.000000	0.073378   
864.500000	0.144666   
865.000000	0.163560   
865.500000	0.137386   
866.000000	-0.032969  
866.500000	-0.153416  
867.000000	-0.181439  
867.500000	-0.059530  
868.000000	0.007583   
868.500000	0.006272   
869.000000	-0.065446  
869.500000	-0.102242  
870.000000	-0.060143  
870.500000	0.013204   
871.000000	0.078462   
871.500000	0.028704   
872.000000	-0.083340  
872.500000	-0.202106  
873.000000	-0.194000  
873.500000	-0.168000  
874.000000	-0.155893  
874.500000	-0.164431  
875.000000	-0.134340  
875.500000	0.002787   
876.000000	0.167772   
876.500000	0.228681   
877.000000	0.151363   
877.500000	0.019174   
878.000000	-0.072583  
878.500000	-0.239431  
879.000000	-0.338613  
879.500000	-0.309757  
880.000000	-0.074272  
880.500000	0.098022   
881.000000	0.152734   
881.500000	0.126030   
882.000000	0.094977   
882.500000	0.051098   
883.000000	0.007946   
883.500000	0.031318   
884.000000	0.006174   
884.500000	-0.067568  
885.000000	-0.122015  
885.500000	-0.113340  
886.000000	-0.026628  
886.500000	-0.059106  
887.000000	-0.087522  
887.500000	-0.130348  
888.000000	-0.033856  
888.500000	-0.071143  
889.000000	-0.134121  
889.500000	-0.203500  
890.000000	-0.102840  
890.500000	0.016401   
891.000000	0.028901   
891.500000	-0.065893  
892.000000	-0.137492  
892.500000	-0.077606  
893.000000	0.010530   
893.500000	-0.034583  
894.000000	-0.186272  
894.500000	-0.280098  
895.000000	-0.187848  
895.500000	-0.076340  
896.000000	0.013734   
896.500000	-0.036121  
897.000000	-0.115219  
897.500000	-0.230863  
898.000000	-0.215356  
898.500000	-0.138257  
899.000000	-0.090909  
899.500000	-0.167916  
900.000000	-0.259098  
900.500000	-0.332000  

