PE FL                   SPECTRUM    ASCII       PEDS        1.60        
  -1
S12R#12.SP
24/04/15
15:55:22.00
24/04/15
15:56:47.00
Jan

900.500000
1









LS55
405.00
5.00
5.00
SCAN
1
20
100
100
0
400
0
1
0
1
5
ON
900 405 
1 0 0
#HDR
-1
-1
#GR
NM

0.00002384185791015625
0.0
450.000000
0.500000
902
8
190.147424
-0.476999
#DATA
450.000000	-0.476999  
450.500000	-0.154075  
451.000000	-0.060242  
451.500000	-0.181022  
452.000000	-0.235325  
452.500000	-0.224045  
453.000000	-0.109515  
453.500000	-0.022901  
454.000000	0.105545   
454.500000	0.003674   
455.000000	-0.185628  
455.500000	-0.282757  
456.000000	-0.080810  
456.500000	0.109340   
457.000000	0.171348   
457.500000	0.090189   
458.000000	0.103651   
458.500000	0.074772   
459.000000	0.003613   
459.500000	-0.136636  
460.000000	-0.291765  
460.500000	-0.405325  
461.000000	-0.345818  
461.500000	-0.090257  
462.000000	0.112257   
462.500000	0.172598   
463.000000	-0.001204  
463.500000	-0.099893  
464.000000	-0.195583  
464.500000	-0.231613  
465.000000	-0.307530  
465.500000	-0.254500  
466.000000	-0.093234  
466.500000	0.007962   
467.000000	-0.030257  
467.500000	-0.173393  
468.000000	-0.143727  
468.500000	-0.011446  
469.000000	0.169060   
469.500000	0.187454   
470.000000	0.095030   
470.500000	0.015181   
471.000000	0.007734   
471.500000	0.071659   
472.000000	0.088560   
472.500000	0.202136   
473.000000	0.144136   
473.500000	0.060128   
474.000000	-0.129409  
474.500000	-0.045143  
475.000000	-0.024325  
475.500000	0.032090   
476.000000	-0.054022  
476.500000	0.054446   
477.000000	0.107000   
477.500000	-0.007931  
478.000000	-0.254636  
478.500000	-0.268977  
479.000000	-0.094992  
479.500000	0.029848   
480.000000	-0.043560  
480.500000	-0.136250  
481.000000	-0.179500  
481.500000	-0.264333  
482.000000	-0.320666  
482.500000	-0.166015  
483.000000	0.140310   
483.500000	0.279977   
484.000000	0.150166   
484.500000	-0.063287  
485.000000	-0.119060  
485.500000	-0.036765  
486.000000	0.056000   
486.500000	0.014393   
487.000000	-0.056159  
487.500000	-0.136780  
488.000000	-0.108257  
488.500000	-0.068636  
489.000000	-0.016886  
489.500000	-0.138393  
490.000000	-0.187659  
490.500000	-0.094045  
491.000000	0.179946   
491.500000	0.261128   
492.000000	0.146030   
492.500000	0.006060   
493.000000	0.059681   
493.500000	0.055613   
494.000000	-0.092727  
494.500000	-0.108659  
495.000000	0.059946   
495.500000	0.238803   
496.000000	0.173810   
496.500000	0.089507   
497.000000	-0.012530  
497.500000	0.058833   
498.000000	0.203143   
498.500000	0.527106   
499.000000	0.734765   
499.500000	0.788719   
500.000000	0.780893   
500.500000	0.893909   
501.000000	0.916818   
501.500000	0.856651   
502.000000	0.777454   
502.500000	0.768469   
503.000000	0.747340   
503.500000	0.757787   
504.000000	0.944681   
504.500000	1.251446   
505.000000	1.431643   
505.500000	1.302439   
506.000000	1.170227   
506.500000	1.365469   
507.000000	1.780174   
507.500000	2.167128   
508.000000	2.333621   
508.500000	2.363174   
509.000000	2.302621   
509.500000	2.270545   
510.000000	2.202545   
510.500000	2.199363   
511.000000	2.305037   
511.500000	2.560984   
512.000000	2.774386   
512.500000	2.728825   
513.000000	2.578340   
513.500000	2.640689   
514.000000	2.922000   
514.500000	2.978189   
515.000000	2.875083   
515.500000	2.773545   
516.000000	2.911636   
516.500000	3.078007   
517.000000	3.257954   
517.500000	3.368015   
518.000000	3.511053   
518.500000	3.446265   
519.000000	3.280227   
519.500000	3.073575   
520.000000	2.946053   
520.500000	2.934219   
521.000000	3.114303   
521.500000	3.346143   
522.000000	3.464348   
522.500000	3.375386   
523.000000	3.194272   
523.500000	3.077431   
524.000000	3.128613   
524.500000	3.203106   
525.000000	3.436500   
525.500000	3.477863   
526.000000	3.580772   
526.500000	3.643803   
527.000000	4.075840   
527.500000	4.384053   
528.000000	4.621098   
528.500000	4.741575   
529.000000	5.031848   
529.500000	5.378689   
530.000000	5.425787   
530.500000	5.543310   
531.000000	5.724886   
531.500000	5.936242   
532.000000	5.927030   
532.500000	6.106840   
533.000000	6.491310   
533.500000	6.970810   
534.000000	7.277143   
534.500000	7.367924   
535.000000	7.352446   
535.500000	7.430166   
536.000000	8.131636   
536.500000	9.113022   
537.000000	9.944242   
537.500000	10.312272  
538.000000	10.671530  
538.500000	11.232977  
539.000000	11.840287  
539.500000	12.305863  
540.000000	12.797234  
540.500000	13.236780  
541.000000	13.714356  
541.500000	14.061083  
542.000000	14.254613  
542.500000	14.111590  
543.000000	13.824674  
543.500000	13.181121  
544.000000	12.656250  
544.500000	12.220204  
545.000000	11.973780  
545.500000	11.522787  
546.000000	11.030477  
546.500000	10.527068  
547.000000	10.133878  
547.500000	9.398719   
548.000000	8.627598   
548.500000	7.721871   
549.000000	7.040962   
549.500000	6.429219   
550.000000	6.129053   
550.500000	5.762143   
551.000000	5.455000   
551.500000	5.037287   
552.000000	4.578212   
552.500000	4.047280   
553.000000	3.721128   
553.500000	3.650575   
554.000000	3.623431   
554.500000	3.463916   
555.000000	3.295590   
555.500000	3.269356   
556.000000	3.197750   
556.500000	3.098719   
557.000000	2.992969   
557.500000	3.119916   
558.000000	3.332121   
558.500000	3.371636   
559.000000	3.123651   
559.500000	2.883272   
560.000000	2.823681   
560.500000	2.938909   
561.000000	3.061856   
561.500000	3.082977   
562.000000	3.055893   
562.500000	3.061318   
563.000000	3.153219   
563.500000	3.178371   
564.000000	3.099500   
564.500000	3.073916   
565.000000	3.210727   
565.500000	3.314871   
566.000000	3.237068   
566.500000	3.130674   
567.000000	3.178969   
567.500000	3.394553   
568.000000	3.492939   
568.500000	3.419348   
569.000000	3.224280   
569.500000	3.102606   
570.000000	3.117393   
570.500000	3.249856   
571.000000	3.398833   
571.500000	3.488856   
572.000000	3.547659   
572.500000	3.508174   
573.000000	3.362083   
573.500000	3.245674   
574.000000	3.302287   
574.500000	3.327416   
575.000000	3.319113   
575.500000	3.243871   
576.000000	3.318659   
576.500000	3.359765   
577.000000	3.352234   
577.500000	3.262545   
578.000000	3.224522   
578.500000	3.064727   
579.000000	3.000931   
579.500000	3.118416   
580.000000	3.314340   
580.500000	3.515174   
581.000000	3.598469   
581.500000	3.658159   
582.000000	3.505590   
582.500000	3.362795   
583.000000	3.308469   
583.500000	3.504030   
584.000000	3.663818   
584.500000	3.921856   
585.000000	4.105106   
585.500000	4.114780   
586.000000	3.941553   
586.500000	3.785954   
587.000000	3.780886   
587.500000	3.673257   
588.000000	3.606068   
588.500000	3.513765   
589.000000	3.578500   
589.500000	3.702075   
590.000000	4.023303   
590.500000	4.204371   
591.000000	4.106287   
591.500000	3.729628   
592.000000	3.544780   
592.500000	3.690151   
593.000000	4.037083   
593.500000	4.264969   
594.000000	4.466643   
594.500000	4.454598   
595.000000	4.310712   
595.500000	4.126257   
596.000000	4.358393   
596.500000	4.849416   
597.000000	5.109234   
597.500000	4.820098   
598.000000	4.675303   
598.500000	4.840037   
599.000000	5.048583   
599.500000	5.059757   
600.000000	5.160295   
600.500000	5.438409   
601.000000	5.733280   
601.500000	5.732651   
602.000000	5.610098   
602.500000	5.355515   
603.000000	5.385704   
603.500000	5.759446   
604.000000	6.165310   
604.500000	6.071840   
605.000000	6.048242   
605.500000	6.309303   
606.000000	6.721583   
606.500000	6.777227   
607.000000	6.920772   
607.500000	7.340492   
608.000000	7.904454   
608.500000	8.068174   
609.000000	8.111598   
609.500000	8.027075   
610.000000	8.297219   
610.500000	8.623143   
611.000000	9.156037   
611.500000	9.427795   
612.000000	9.673977   
612.500000	9.894954   
613.000000	10.330037  
613.500000	10.652159  
614.000000	10.868878  
614.500000	11.002333  
615.000000	11.221113  
615.500000	11.373151  
616.000000	11.395219  
616.500000	11.561280  
617.000000	12.138121  
617.500000	12.868371  
618.000000	13.289734  
618.500000	13.662227  
619.000000	14.061757  
619.500000	14.619856  
620.000000	15.532121  
620.500000	16.378901  
621.000000	16.949492  
621.500000	17.307628  
622.000000	17.659454  
622.500000	18.442189  
623.000000	19.565272  
623.500000	20.907446  
624.000000	22.016492  
624.500000	22.376636  
625.000000	21.880295  
625.500000	21.669151  
626.000000	22.029750  
626.500000	23.143931  
627.000000	24.781090  
627.500000	26.248272  
628.000000	27.319712  
628.500000	27.791856  
629.000000	28.504787  
629.500000	29.923212  
630.000000	31.439833  
630.500000	32.362439  
631.000000	32.934992  
631.500000	34.268249  
632.000000	36.078492  
632.500000	37.704212  
633.000000	38.502022  
633.500000	39.426310  
634.000000	40.263674  
634.500000	41.470000  
635.000000	43.267136  
635.500000	45.481378  
636.000000	47.521393  
636.500000	48.542348  
637.000000	49.278772  
637.500000	50.372000  
638.000000	52.127416  
638.500000	54.535863  
639.000000	56.953060  
639.500000	59.244969  
640.000000	60.667575  
640.500000	61.281424  
641.000000	61.882242  
641.500000	63.892022  
642.000000	66.695681  
642.500000	69.188189  
643.000000	71.272371  
643.500000	73.130924  
644.000000	75.367863  
644.500000	76.721651  
645.000000	77.991068  
645.500000	79.476151  
646.000000	81.737295  
646.500000	83.933030  
647.000000	86.683636  
647.500000	89.703090  
648.000000	93.200946  
648.500000	95.725090  
649.000000	97.449469  
649.500000	98.922886  
650.000000	101.063916 
650.500000	103.013651 
651.000000	105.274022 
651.500000	108.152871 
652.000000	111.616537 
652.500000	113.589151 
653.000000	114.884340 
653.500000	116.501666 
654.000000	119.567840 
654.500000	122.448272 
655.000000	126.134318 
655.500000	129.496303 
656.000000	132.521174 
656.500000	133.181818 
657.000000	134.245143 
657.500000	136.352462 
658.000000	139.557196 
658.500000	141.113909 
659.000000	142.615613 
659.500000	144.713750 
660.000000	148.263666 
660.500000	151.565818 
661.000000	154.006507 
661.500000	155.315606 
662.000000	156.329189 
662.500000	157.424909 
663.000000	159.610181 
663.500000	162.789962 
664.000000	165.471068 
664.500000	167.500113 
665.000000	169.459219 
665.500000	171.035704 
666.000000	171.334674 
666.500000	171.481303 
667.000000	173.292386 
667.500000	176.593204 
668.000000	178.160515 
668.500000	177.967234 
669.000000	178.700893 
669.500000	180.976621 
670.000000	183.560212 
670.500000	183.975621 
671.000000	183.216439 
671.500000	182.478931 
672.000000	183.735946 
672.500000	184.930893 
673.000000	186.097712 
673.500000	186.267174 
674.000000	188.037303 
674.500000	189.805772 
675.000000	190.147424 
675.500000	188.848401 
676.000000	188.588022 
676.500000	188.949318 
677.000000	189.378780 
677.500000	188.802795 
678.000000	187.860401 
678.500000	186.788477 
679.000000	185.361295 
679.500000	184.166856 
680.000000	183.856348 
680.500000	183.273378 
681.000000	182.287954 
681.500000	180.862090 
682.000000	180.202560 
682.500000	179.302030 
683.000000	178.283166 
683.500000	177.033212 
684.000000	176.286401 
684.500000	174.599204 
685.000000	171.539318 
685.500000	168.574651 
686.000000	166.658143 
686.500000	165.038916 
687.000000	162.467106 
687.500000	159.741439 
688.000000	157.445257 
688.500000	154.954962 
689.000000	151.488568 
689.500000	148.503037 
690.000000	146.257340 
690.500000	144.430840 
691.000000	141.214424 
691.500000	137.585719 
692.000000	134.158181 
692.500000	130.592090 
693.000000	126.605568 
693.500000	122.484227 
694.000000	119.351409 
694.500000	118.011045 
695.000000	117.198371 
695.500000	115.305537 
696.000000	111.512674 
696.500000	108.044090 
697.000000	105.295189 
697.500000	103.597719 
698.000000	100.845393 
698.500000	97.682143  
699.000000	93.962143  
699.500000	90.414272  
700.000000	88.165303  
700.500000	86.203204  
701.000000	84.061303  
701.500000	81.184712  
702.000000	78.516166  
702.500000	75.917454  
703.000000	73.853393  
703.500000	72.045287  
704.000000	70.326265  
704.500000	67.994151  
705.000000	65.294340  
705.500000	63.048681  
706.000000	61.240803  
706.500000	59.685962  
707.000000	57.878219  
707.500000	55.913280  
708.000000	54.117234  
708.500000	53.259659  
709.000000	52.987174  
709.500000	52.266750  
710.000000	49.911484  
710.500000	47.512386  
711.000000	45.903651  
711.500000	45.585060  
712.000000	44.763553  
712.500000	43.330136  
713.000000	41.410000  
713.500000	40.337871  
714.000000	39.504545  
714.500000	38.927795  
715.000000	37.660643  
715.500000	36.094492  
716.000000	34.335325  
716.500000	32.965196  
717.000000	32.136780  
717.500000	32.135583  
718.000000	31.828553  
718.500000	30.957128  
719.000000	29.499553  
719.500000	28.377136  
720.000000	27.649818  
720.500000	26.987075  
721.000000	26.078689  
721.500000	25.124598  
722.000000	24.445765  
722.500000	23.811500  
723.000000	23.282371  
723.500000	22.661772  
724.000000	22.254560  
724.500000	21.476462  
725.000000	20.596068  
725.500000	19.675151  
726.000000	19.258446  
726.500000	18.712772  
727.000000	18.078128  
727.500000	17.572257  
728.000000	17.486174  
728.500000	17.328166  
729.000000	16.829825  
729.500000	16.219901  
730.000000	15.861560  
730.500000	15.660409  
731.000000	15.169742  
731.500000	14.305446  
732.000000	13.469075  
732.500000	12.769689  
733.000000	12.687681  
733.500000	12.897234  
734.000000	13.189204  
734.500000	12.581212  
735.000000	11.781666  
735.500000	11.340840  
736.000000	11.770083  
736.500000	12.047757  
737.000000	11.758083  
737.500000	11.094984  
738.000000	10.353909  
738.500000	9.819439   
739.000000	9.632500   
739.500000	10.017075  
740.000000	9.913659   
740.500000	9.801696   
741.000000	9.475818   
741.500000	9.632871   
742.000000	9.489750   
742.500000	9.174128   
743.000000	8.653931   
743.500000	8.342484   
744.000000	8.295045   
744.500000	8.129969   
745.000000	7.943719   
745.500000	7.591174   
746.000000	7.808083   
746.500000	7.814893   
747.000000	7.517037   
747.500000	6.894022   
748.000000	6.593749   
748.500000	6.591939   
749.000000	6.689462   
749.500000	6.604386   
750.000000	6.295257   
750.500000	6.018462   
751.000000	6.100765   
751.500000	6.532015   
752.000000	6.879916   
752.500000	6.851083   
753.000000	6.552272   
753.500000	6.086696   
754.000000	5.778469   
754.500000	5.618333   
755.000000	5.572075   
755.500000	5.437651   
756.000000	5.449742   
756.500000	5.343924   
757.000000	5.174621   
757.500000	4.965916   
758.000000	5.056348   
758.500000	5.225810   
759.000000	5.214219   
759.500000	4.925287   
760.000000	4.588280   
760.500000	4.522901   
761.000000	4.707734   
761.500000	5.079227   
762.000000	5.123378   
762.500000	4.917250   
763.000000	4.534651   
763.500000	4.316606   
764.000000	4.316121   
764.500000	4.335310   
765.000000	4.292477   
765.500000	4.091204   
766.000000	4.170992   
766.500000	4.107386   
767.000000	3.987742   
767.500000	3.591174   
768.000000	3.560939   
768.500000	3.639287   
769.000000	3.749022   
769.500000	3.615000   
770.000000	3.525136   
770.500000	3.612030   
771.000000	3.669886   
771.500000	3.551939   
772.000000	3.273015   
772.500000	3.228931   
773.000000	3.351204   
773.500000	3.538719   
774.000000	3.462871   
774.500000	3.430075   
775.000000	3.422333   
775.500000	3.483969   
776.000000	3.426810   
776.500000	3.400272   
777.000000	3.297454   
777.500000	3.159954   
778.000000	2.961136   
778.500000	2.987446   
779.000000	3.182712   
779.500000	3.358037   
780.000000	3.313878   
780.500000	3.292007   
781.000000	3.275969   
781.500000	3.227704   
782.000000	2.937765   
782.500000	2.656916   
783.000000	2.566780   
783.500000	2.764750   
784.000000	2.953098   
784.500000	3.080242   
785.000000	2.975272   
785.500000	2.656037   
786.000000	2.261272   
786.500000	2.180507   
787.000000	2.410931   
787.500000	2.758954   
788.000000	2.880689   
788.500000	2.723553   
789.000000	2.481946   
789.500000	2.389909   
790.000000	2.437136   
790.500000	2.605295   
791.000000	2.700159   
791.500000	2.738969   
792.000000	2.615265   
792.500000	2.513666   
793.000000	2.480090   
793.500000	2.536590   
794.000000	2.583212   
794.500000	2.562719   
795.000000	2.595007   
795.500000	2.519143   
796.000000	2.523931   
796.500000	2.487007   
797.000000	2.564386   
797.500000	2.541750   
798.000000	2.652083   
798.500000	2.657212   
799.000000	2.512825   
799.500000	2.198848   
800.000000	1.913704   
800.500000	1.889340   
801.000000	1.983234   
801.500000	2.146416   
802.000000	2.238090   
802.500000	2.282674   
803.000000	2.199931   
803.500000	2.161045   
804.000000	2.254022   
804.500000	2.414992   
805.000000	2.480409   
805.500000	2.265007   
806.000000	2.057227   
806.500000	1.909916   
807.000000	1.793977   
807.500000	1.654272   
808.000000	1.489537   
808.500000	1.499484   
809.000000	1.566992   
809.500000	1.677939   
810.000000	1.831045   
810.500000	2.095060   
811.000000	2.123810   
811.500000	1.867136   
812.000000	1.643560   
812.500000	1.597636   
813.000000	1.628803   
813.500000	1.466068   
814.000000	1.348674   
814.500000	1.431113   
815.000000	1.607931   
815.500000	1.710196   
816.000000	1.712734   
816.500000	1.663462   
817.000000	1.616606   
817.500000	1.575363   
818.000000	1.599681   
818.500000	1.633681   
819.000000	1.717606   
819.500000	1.678143   
820.000000	1.692265   
820.500000	1.903856   
821.000000	2.314462   
821.500000	2.619098   
822.000000	2.567515   
822.500000	2.446022   
823.000000	2.370113   
823.500000	2.436371   
824.000000	2.444719   
824.500000	2.552280   
825.000000	2.622151   
825.500000	2.624409   
826.000000	2.492401   
826.500000	2.492590   
827.000000	2.502462   
827.500000	2.440303   
828.000000	2.092121   
828.500000	1.938295   
829.000000	1.812409   
829.500000	1.760833   
830.000000	1.474295   
830.500000	1.280704   
831.000000	1.073818   
831.500000	1.036287   
832.000000	1.047280   
832.500000	1.206378   
833.000000	1.249636   
833.500000	1.160954   
834.000000	1.087613   
834.500000	1.049757   
835.000000	0.993613   
835.500000	0.888159   
836.000000	0.839318   
836.500000	0.858121   
837.000000	0.928825   
837.500000	0.974583   
838.000000	1.009045   
838.500000	0.963757   
839.000000	0.874030   
839.500000	0.807416   
840.000000	0.787303   
840.500000	0.657719   
841.000000	0.479363   
841.500000	0.362219   
842.000000	0.396878   
842.500000	0.487098   
843.000000	0.512409   
843.500000	0.452545   
844.000000	0.406257   
844.500000	0.473507   
845.000000	0.593492   
845.500000	0.622409   
846.000000	0.528037   
846.500000	0.441886   
847.000000	0.484787   
847.500000	0.479893   
848.000000	0.406204   
848.500000	0.292787   
849.000000	0.246757   
849.500000	0.225795   
850.000000	0.219954   
850.500000	0.168780   
851.000000	0.129636   
851.500000	0.079242   
852.000000	0.127000   
852.500000	0.062515   
853.000000	-0.038348  
853.500000	-0.218287  
854.000000	-0.104310  
854.500000	0.079984   
855.000000	0.262409   
855.500000	0.244227   
856.000000	0.281689   
856.500000	0.335030   
857.000000	0.270833   
857.500000	0.108530   
858.000000	0.007598   
858.500000	0.028606   
859.000000	-0.019287  
859.500000	-0.084825  
860.000000	-0.086015  
860.500000	0.058431   
861.000000	0.220265   
861.500000	0.271833   
862.000000	0.190340   
862.500000	0.054946   
863.000000	-0.029234  
863.500000	-0.003613  
864.000000	0.002939   
864.500000	0.018446   
865.000000	-0.096803  
865.500000	-0.215909  
866.000000	-0.277128  
866.500000	-0.105901  
867.000000	0.039863   
867.500000	0.011484   
868.000000	-0.133075  
868.500000	-0.208492  
869.000000	-0.077416  
869.500000	0.078621   
870.000000	0.199984   
870.500000	0.210545   
871.000000	0.183037   
871.500000	0.082189   
872.000000	0.043386   
872.500000	-0.033621  
873.000000	-0.109310  
873.500000	-0.221750  
874.000000	-0.241515  
874.500000	-0.185787  
875.000000	-0.065363  
875.500000	-0.004371  
876.000000	0.095393   
876.500000	0.159409   
877.000000	0.151757   
877.500000	0.080583   
878.000000	-0.034833  
878.500000	-0.132424  
879.000000	-0.151181  
879.500000	-0.088477  
880.000000	0.006257   
880.500000	-0.031083  
881.000000	-0.144113  
881.500000	-0.198833  
882.000000	-0.141636  
882.500000	-0.013613  
883.000000	0.064166   
883.500000	0.089583   
884.000000	0.044893   
884.500000	-0.040462  
885.000000	-0.101242  
885.500000	-0.109356  
886.000000	-0.073621  
886.500000	-0.059333  
887.000000	-0.000469  
887.500000	0.020030   
888.000000	-0.004924  
888.500000	-0.029901  
889.000000	-0.041484  
889.500000	-0.059166  
890.000000	-0.129734  
890.500000	-0.140303  
891.000000	-0.126651  
891.500000	-0.079583  
892.000000	-0.016439  
892.500000	-0.064522  
893.000000	-0.151416  
893.500000	-0.178318  
894.000000	0.016810   
894.500000	0.231689   
895.000000	0.266484   
895.500000	0.110818   
896.000000	-0.066121  
896.500000	-0.111507  
897.000000	-0.089863  
897.500000	-0.025696  
898.000000	-0.083143  
898.500000	-0.143696  
899.000000	-0.122992  
899.500000	0.045409   
900.000000	0.281310   
900.500000	0.534000   

