PE FL                   SPECTRUM    ASCII       PEDS        1.60        
  -1
S12R#36.SP
24/04/15
16:29:35.00
24/04/15
16:31:01.00
Jan

900.500000
1









LS55
405.00
5.00
5.00
SCAN
1
20
100
100
0
400
0
1
0
1
5
ON
900 405 
1 0 0
#HDR
-1
-1
#GR
NM

0.00002384185791015625
0.0
450.000000
0.500000
902
8
168.256727
-0.462689
#DATA
450.000000	-0.330000  
450.500000	-0.178750  
451.000000	-0.177181  
451.500000	-0.322704  
452.000000	-0.332484  
452.500000	-0.130249  
453.000000	0.148719   
453.500000	0.167689   
454.000000	-0.101636  
454.500000	-0.413234  
455.000000	-0.446727  
455.500000	-0.283500  
456.000000	-0.099045  
456.500000	-0.040393  
457.000000	-0.013045  
457.500000	0.044750   
458.000000	0.015401   
458.500000	-0.102454  
459.000000	-0.174909  
459.500000	-0.159272  
460.000000	-0.206818  
460.500000	-0.176037  
461.000000	0.004651   
461.500000	0.285621   
462.000000	0.285113   
462.500000	-0.036787  
463.000000	-0.392924  
463.500000	-0.462689  
464.000000	-0.379962  
464.500000	-0.216636  
465.000000	-0.032265  
465.500000	0.156962   
466.000000	0.170803   
466.500000	-0.010537  
467.000000	-0.281462  
467.500000	-0.348037  
468.000000	-0.232060  
468.500000	0.028424   
469.000000	0.198590   
469.500000	0.093924   
470.000000	-0.138416  
470.500000	-0.238128  
471.000000	-0.130742  
471.500000	0.001742   
472.000000	0.035901   
472.500000	-0.006765  
473.000000	0.050318   
473.500000	0.109871   
474.000000	0.160545   
474.500000	-0.023750  
475.000000	-0.176340  
475.500000	-0.253439  
476.000000	-0.118931  
476.500000	-0.021727  
477.000000	0.109416   
477.500000	0.128098   
478.000000	0.062787   
478.500000	-0.059750  
479.000000	-0.043522  
479.500000	0.066848   
480.000000	0.113651   
480.500000	0.018287   
481.000000	-0.203946  
481.500000	-0.386840  
482.000000	-0.432530  
482.500000	-0.188295  
483.000000	0.039704   
483.500000	0.049590   
484.000000	-0.245303  
484.500000	-0.326560  
485.000000	-0.205772  
485.500000	0.007272   
486.000000	0.053598   
486.500000	-0.069393  
487.000000	-0.157143  
487.500000	-0.132409  
488.000000	0.088515   
488.500000	0.223409   
489.000000	0.249424   
489.500000	0.080204   
490.000000	-0.006946  
490.500000	-0.008825  
491.000000	0.050787   
491.500000	0.038856   
492.000000	-0.022469  
492.500000	-0.059560  
493.000000	0.053500   
493.500000	0.175371   
494.000000	0.235916   
494.500000	0.162393   
495.000000	0.107303   
495.500000	0.088992   
496.000000	0.200356   
496.500000	0.237234   
497.000000	0.292204   
497.500000	0.410719   
498.000000	0.523545   
498.500000	0.579219   
499.000000	0.598181   
499.500000	0.607242   
500.000000	0.509507   
500.500000	0.492946   
501.000000	0.573113   
501.500000	0.767250   
502.000000	0.793818   
502.500000	0.835348   
503.000000	0.886060   
503.500000	0.839143   
504.000000	0.875181   
504.500000	1.092628   
505.000000	1.425121   
505.500000	1.490393   
506.000000	1.597325   
506.500000	1.675318   
507.000000	1.817628   
507.500000	1.789931   
508.000000	1.849090   
508.500000	1.969803   
509.000000	1.950196   
509.500000	1.923136   
510.000000	2.046848   
510.500000	2.414356   
511.000000	2.619371   
511.500000	2.733590   
512.000000	2.780363   
512.500000	2.860765   
513.000000	2.819500   
513.500000	2.763962   
514.000000	2.877098   
514.500000	3.063310   
515.000000	3.080280   
515.500000	2.894287   
516.000000	2.668098   
516.500000	2.724901   
517.000000	3.032803   
517.500000	3.424416   
518.000000	3.508734   
518.500000	3.405924   
519.000000	3.272075   
519.500000	3.216196   
520.000000	3.271507   
520.500000	3.190265   
521.000000	3.155128   
521.500000	3.002484   
522.000000	3.012886   
522.500000	3.120431   
523.000000	3.382401   
523.500000	3.503742   
524.000000	3.776560   
524.500000	3.974727   
525.000000	3.906484   
525.500000	3.541575   
526.000000	3.394227   
526.500000	3.635863   
527.000000	4.081257   
527.500000	4.407189   
528.000000	4.791780   
528.500000	5.219969   
529.000000	5.460840   
529.500000	5.511689   
530.000000	5.594598   
530.500000	5.711643   
531.000000	5.840643   
531.500000	5.849310   
532.000000	5.965848   
532.500000	6.156696   
533.000000	6.423636   
533.500000	6.633992   
534.000000	7.005303   
534.500000	7.373636   
535.000000	7.757606   
535.500000	8.077696   
536.000000	8.413939   
536.500000	8.748204   
537.000000	9.078363   
537.500000	9.491893   
538.000000	10.093325  
538.500000	10.851257  
539.000000	11.429310  
539.500000	12.071439  
540.000000	12.472106  
540.500000	13.075590  
541.000000	13.398037  
541.500000	13.715340  
542.000000	13.396106  
542.500000	13.148098  
543.000000	12.881303  
543.500000	12.982469  
544.000000	12.844333  
544.500000	12.279045  
545.000000	11.446954  
545.500000	10.875984  
546.000000	10.535810  
546.500000	10.325053  
547.000000	9.765939   
547.500000	9.068106   
548.000000	8.320143   
548.500000	7.839363   
549.000000	7.197863   
549.500000	6.682356   
550.000000	6.277143   
550.500000	6.026628   
551.000000	5.622742   
551.500000	4.893098   
552.000000	4.334757   
552.500000	3.958727   
553.000000	3.730856   
553.500000	3.438696   
554.000000	3.286772   
554.500000	3.290143   
555.000000	3.338590   
555.500000	3.252250   
556.000000	3.243825   
556.500000	3.245030   
557.000000	3.269643   
557.500000	3.145674   
558.000000	3.127621   
558.500000	3.245242   
559.000000	3.484272   
559.500000	3.519825   
560.000000	3.403386   
560.500000	3.218939   
561.000000	2.982583   
561.500000	2.900250   
562.000000	3.002204   
562.500000	3.238780   
563.000000	3.332962   
563.500000	3.190310   
564.000000	3.057439   
564.500000	3.069098   
565.000000	3.098553   
565.500000	3.026340   
566.000000	2.950068   
566.500000	2.922007   
567.000000	2.912424   
567.500000	2.929356   
568.000000	2.944477   
568.500000	3.068780   
569.000000	3.271636   
569.500000	3.524931   
570.000000	3.653818   
570.500000	3.517363   
571.000000	3.203318   
571.500000	2.949659   
572.000000	3.064757   
572.500000	3.290750   
573.000000	3.573015   
573.500000	3.790416   
574.000000	3.967121   
574.500000	3.883083   
575.000000	3.614151   
575.500000	3.351090   
576.000000	3.202083   
576.500000	3.128242   
577.000000	3.081992   
577.500000	3.145795   
578.000000	3.139371   
578.500000	3.176560   
579.000000	3.250484   
579.500000	3.297204   
580.000000	3.186325   
580.500000	3.138674   
581.000000	3.235628   
581.500000	3.389075   
582.000000	3.374696   
582.500000	3.304530   
583.000000	3.348348   
583.500000	3.454446   
584.000000	3.506340   
584.500000	3.467000   
585.000000	3.475500   
585.500000	3.500000   
586.000000	3.603159   
586.500000	3.716416   
587.000000	3.830712   
587.500000	3.891325   
588.000000	4.083840   
588.500000	3.993598   
589.000000	3.885992   
589.500000	3.653636   
590.000000	3.685939   
590.500000	3.579530   
591.000000	3.614045   
591.500000	3.793265   
592.000000	4.060537   
592.500000	4.073136   
593.000000	3.966151   
593.500000	4.162704   
594.000000	4.357545   
594.500000	4.334234   
595.000000	4.217734   
595.500000	4.317310   
596.000000	4.573045   
596.500000	4.652295   
597.000000	4.744310   
597.500000	4.851136   
598.000000	5.090727   
598.500000	5.024780   
599.000000	4.943446   
599.500000	5.155356   
600.000000	5.684810   
600.500000	5.998121   
601.000000	5.888249   
601.500000	5.612068   
602.000000	5.563159   
602.500000	5.675431   
603.000000	6.012499   
603.500000	6.566500   
604.000000	6.948901   
604.500000	7.067030   
605.000000	6.880295   
605.500000	6.816924   
606.000000	6.735515   
606.500000	6.963749   
607.000000	7.289318   
607.500000	7.873901   
608.000000	8.034924   
608.500000	8.186090   
609.000000	8.423098   
609.500000	8.877969   
610.000000	9.195409   
610.500000	9.584666   
611.000000	10.125113  
611.500000	10.580704  
612.000000	10.771439  
612.500000	10.903515  
613.000000	11.126303  
613.500000	11.338916  
614.000000	11.310613  
614.500000	11.551401  
615.000000	12.266045  
615.500000	13.185204  
616.000000	13.870750  
616.500000	14.230431  
617.000000	14.571916  
617.500000	15.056000  
618.000000	15.541045  
618.500000	15.676590  
619.000000	15.998227  
619.500000	16.764931  
620.000000	17.685212  
620.500000	18.335386  
621.000000	18.651219  
621.500000	19.544318  
622.000000	20.746462  
622.500000	21.691340  
623.000000	22.268303  
623.500000	23.296234  
624.000000	24.510265  
624.500000	25.444659  
625.000000	25.853628  
625.500000	26.165128  
626.000000	27.194484  
626.500000	28.523416  
627.000000	29.930037  
627.500000	30.990863  
628.000000	31.938022  
628.500000	32.819113  
629.000000	33.962727  
629.500000	35.066765  
630.000000	36.216818  
630.500000	37.604310  
631.000000	38.956265  
631.500000	39.888818  
632.000000	40.428962  
632.500000	41.295825  
633.000000	43.090159  
633.500000	45.214136  
634.000000	46.774795  
634.500000	48.253196  
635.000000	50.046742  
635.500000	52.169628  
636.000000	53.877765  
636.500000	55.187106  
637.000000	56.451393  
637.500000	58.218219  
638.000000	59.916643  
638.500000	61.404083  
639.000000	62.818598  
639.500000	64.350204  
640.000000	66.286325  
640.500000	68.410984  
641.000000	70.375060  
641.500000	72.575878  
642.000000	75.101946  
642.500000	77.746090  
643.000000	79.697962  
643.500000	80.893340  
644.000000	82.454393  
644.500000	85.502098  
645.000000	88.991674  
645.500000	91.298143  
646.000000	92.396166  
646.500000	93.136893  
647.000000	95.581227  
647.500000	98.432984  
648.000000	100.220583 
648.500000	101.156916 
649.000000	102.575507 
649.500000	105.264242 
650.000000	107.847939 
650.500000	109.959931 
651.000000	111.541553 
651.500000	113.633689 
652.000000	115.585242 
652.500000	117.755196 
653.000000	119.841757 
653.500000	121.961621 
654.000000	124.269742 
654.500000	126.043136 
655.000000	127.268530 
655.500000	128.340212 
656.000000	130.192780 
656.500000	131.973136 
657.000000	134.076810 
657.500000	136.768765 
658.000000	140.170121 
658.500000	141.842454 
659.000000	142.584530 
659.500000	143.041909 
660.000000	145.163363 
660.500000	146.644863 
661.000000	147.896909 
661.500000	149.676045 
662.000000	151.924606 
662.500000	153.745901 
663.000000	154.963090 
663.500000	157.304219 
664.000000	159.070871 
664.500000	160.295606 
665.000000	160.108840 
665.500000	161.326128 
666.000000	162.095772 
666.500000	163.002045 
667.000000	163.198954 
667.500000	163.779757 
668.000000	164.099643 
668.500000	163.963712 
669.000000	163.901333 
669.500000	164.546507 
670.000000	165.238696 
670.500000	165.472530 
671.000000	164.677045 
671.500000	164.508704 
672.000000	165.204984 
672.500000	166.199893 
673.000000	166.678045 
673.500000	167.517765 
674.000000	168.256727 
674.500000	167.393098 
675.000000	165.271696 
675.500000	164.041666 
676.000000	164.020371 
676.500000	163.806098 
677.000000	162.173696 
677.500000	160.746151 
678.000000	159.433068 
678.500000	159.083227 
679.000000	157.137159 
679.500000	155.123924 
680.000000	152.423878 
680.500000	150.499954 
681.000000	148.686053 
681.500000	147.296242 
682.000000	145.876075 
682.500000	144.596015 
683.000000	142.747515 
683.500000	140.086757 
684.000000	138.015068 
684.500000	136.066780 
685.000000	134.396621 
685.500000	131.854825 
686.000000	129.807704 
686.500000	126.926893 
687.000000	124.064484 
687.500000	120.603030 
688.000000	117.757098 
688.500000	114.910803 
689.000000	112.567696 
689.500000	111.041621 
690.000000	108.801893 
690.500000	105.937280 
691.000000	102.500159 
691.500000	100.685871 
692.000000	98.355878  
692.500000	96.551424  
693.000000	94.117757  
693.500000	91.857030  
694.000000	88.733060  
694.500000	85.947780  
695.000000	83.975378  
695.500000	81.942742  
696.000000	80.148977  
696.500000	77.953553  
697.000000	75.812742  
697.500000	72.219113  
698.000000	69.053477  
698.500000	66.289878  
699.000000	64.598628  
699.500000	62.714886  
700.000000	60.637227  
700.500000	58.904810  
701.000000	57.738780  
701.500000	56.987416  
702.000000	55.755772  
702.500000	54.255242  
703.000000	52.047356  
703.500000	49.984651  
704.000000	48.521181  
704.500000	48.097924  
705.000000	47.432863  
705.500000	45.589227  
706.000000	43.248500  
706.500000	41.947704  
707.000000	41.324189  
707.500000	40.630121  
708.000000	39.561196  
708.500000	38.300742  
709.000000	36.892757  
709.500000	35.329750  
710.000000	34.455666  
710.500000	33.848613  
711.000000	33.421477  
711.500000	32.536424  
712.000000	31.549636  
712.500000	29.854219  
713.000000	28.400189  
713.500000	27.795030  
714.000000	27.655000  
714.500000	27.277659  
715.000000	26.084386  
715.500000	25.138325  
716.000000	24.312303  
716.500000	23.896787  
717.000000	23.151333  
717.500000	22.809833  
718.000000	22.318174  
718.500000	22.262098  
719.000000	21.975621  
719.500000	21.587772  
720.000000	20.353181  
720.500000	18.921613  
721.000000	17.592212  
721.500000	17.085984  
722.000000	16.947219  
722.500000	16.881250  
723.000000	16.561310  
723.500000	16.083750  
724.000000	15.543598  
724.500000	15.298174  
725.000000	15.130606  
725.500000	15.023280  
726.000000	14.539984  
726.500000	14.214969  
727.000000	13.778515  
727.500000	13.348348  
728.000000	12.603287  
728.500000	12.013015  
729.000000	11.692090  
729.500000	11.798856  
730.000000	12.083878  
730.500000	12.025636  
731.000000	11.579477  
731.500000	10.964409  
732.000000	10.703098  
732.500000	10.627212  
733.000000	10.410143  
733.500000	9.964477   
734.000000	9.551378   
734.500000	9.314772   
735.000000	9.242984   
735.500000	9.162431   
736.000000	8.917356   
736.500000	8.762909   
737.000000	8.648712   
737.500000	8.627340   
738.000000	8.495386   
738.500000	8.496121   
739.000000	8.258840   
739.500000	7.991378   
740.000000	7.661757   
740.500000	7.903681   
741.000000	8.158901   
741.500000	8.186106   
742.000000	7.616098   
742.500000	7.016636   
743.000000	6.586037   
743.500000	6.552280   
744.000000	6.558431   
744.500000	6.631265   
745.000000	6.418734   
745.500000	6.292007   
746.000000	6.060219   
746.500000	6.213469   
747.000000	6.272068   
747.500000	6.307037   
748.000000	6.032946   
748.500000	5.895969   
749.000000	5.534143   
749.500000	5.123318   
750.000000	5.018636   
750.500000	5.212939   
751.000000	5.378886   
751.500000	5.215628   
752.000000	5.131689   
752.500000	5.127916   
753.000000	4.815257   
753.500000	4.374174   
754.000000	4.418689   
754.500000	5.046462   
755.000000	5.419931   
755.500000	5.352734   
756.000000	4.897795   
756.500000	4.494431   
757.000000	4.217583   
757.500000	4.206977   
758.000000	4.429659   
758.500000	4.492924   
759.000000	4.451446   
759.500000	4.380136   
760.000000	4.363901   
760.500000	3.944810   
761.000000	3.520553   
761.500000	3.491174   
762.000000	4.061962   
762.500000	4.424037   
763.000000	4.441848   
763.500000	4.183416   
764.000000	4.157318   
764.500000	4.112765   
765.000000	4.057507   
765.500000	3.798431   
766.000000	3.763250   
766.500000	3.742962   
767.000000	3.804500   
767.500000	3.664083   
768.000000	3.496575   
768.500000	3.364848   
769.000000	3.316833   
769.500000	3.285371   
770.000000	3.259053   
770.500000	3.236924   
771.000000	3.157765   
771.500000	3.096439   
772.000000	3.013022   
772.500000	2.976166   
773.000000	3.012575   
773.500000	3.078227   
774.000000	3.215689   
774.500000	3.314037   
775.000000	3.359333   
775.500000	3.230446   
776.000000	3.022090   
776.500000	2.776628   
777.000000	2.762007   
777.500000	2.925772   
778.000000	3.104454   
778.500000	3.135856   
779.000000	2.922219   
779.500000	2.699545   
780.000000	2.590840   
780.500000	2.758303   
781.000000	2.946287   
781.500000	3.120280   
782.000000	3.122234   
782.500000	3.113750   
783.000000	2.957500   
783.500000	2.853113   
784.000000	2.805416   
784.500000	2.878234   
785.000000	2.930181   
785.500000	2.914507   
786.000000	2.854575   
786.500000	2.587522   
787.000000	2.228045   
787.500000	1.986068   
788.000000	2.196560   
788.500000	2.566696   
789.000000	2.750234   
789.500000	2.628378   
790.000000	2.477636   
790.500000	2.439287   
791.000000	2.438272   
791.500000	2.553787   
792.000000	2.613901   
792.500000	2.624727   
793.000000	2.545416   
793.500000	2.537424   
794.000000	2.680848   
794.500000	2.796674   
795.000000	2.803265   
795.500000	2.564363   
796.000000	2.335719   
796.500000	2.262219   
797.000000	2.480946   
797.500000	2.557621   
798.000000	2.377575   
798.500000	2.139318   
799.000000	2.204037   
799.500000	2.424946   
800.000000	2.496659   
800.500000	2.365924   
801.000000	2.261446   
801.500000	2.228151   
802.000000	2.242212   
802.500000	2.318272   
803.000000	2.375098   
803.500000	2.273590   
804.000000	1.931553   
804.500000	1.569818   
805.000000	1.440780   
805.500000	1.628075   
806.000000	1.923128   
806.500000	1.980606   
807.000000	1.933719   
807.500000	1.878075   
808.000000	1.960939   
808.500000	1.967507   
809.000000	1.915765   
809.500000	1.872280   
810.000000	1.765340   
810.500000	1.652590   
811.000000	1.612530   
811.500000	1.934909   
812.000000	2.120340   
812.500000	1.958295   
813.000000	1.470393   
813.500000	1.307393   
814.000000	1.486280   
814.500000	1.796424   
815.000000	1.828507   
815.500000	1.694568   
816.000000	1.371287   
816.500000	1.372166   
817.000000	1.520969   
817.500000	1.767068   
818.000000	1.798159   
818.500000	1.789704   
819.000000	1.752128   
819.500000	1.730962   
820.000000	1.718030   
820.500000	1.742045   
821.000000	1.785454   
821.500000	1.810416   
822.000000	1.974462   
822.500000	2.103318   
823.000000	2.146053   
823.500000	2.093075   
824.000000	2.112454   
824.500000	2.129174   
825.000000	2.288265   
825.500000	2.478522   
826.000000	2.656113   
826.500000	2.647409   
827.000000	2.514590   
827.500000	2.270159   
828.000000	2.029628   
828.500000	1.845075   
829.000000	1.655901   
829.500000	1.427674   
830.000000	1.190356   
830.500000	1.042113   
831.000000	1.044969   
831.500000	1.048909   
832.000000	1.047909   
832.500000	1.117151   
833.000000	1.245136   
833.500000	1.280886   
834.000000	1.096916   
834.500000	0.826446   
835.000000	0.710878   
835.500000	0.807977   
836.000000	0.887234   
836.500000	0.824583   
837.000000	0.743742   
837.500000	0.758734   
838.000000	0.888371   
838.500000	0.900750   
839.000000	0.842053   
839.500000	0.809977   
840.000000	0.851287   
840.500000	0.833590   
841.000000	0.780803   
841.500000	0.778265   
842.000000	0.874083   
842.500000	0.989825   
843.000000	0.912984   
843.500000	0.654984   
844.000000	0.232651   
844.500000	-0.052022  
845.000000	-0.055734  
845.500000	0.149121   
846.000000	0.338060   
846.500000	0.488257   
847.000000	0.527825   
847.500000	0.540916   
848.000000	0.522787   
848.500000	0.639810   
849.000000	0.668810   
849.500000	0.564439   
850.000000	0.241318   
850.500000	0.144340   
851.000000	0.183431   
851.500000	0.357393   
852.000000	0.297113   
852.500000	0.192757   
853.000000	0.041424   
853.500000	0.064696   
854.000000	0.019204   
854.500000	0.004606   
855.000000	-0.030060  
855.500000	0.107037   
856.000000	0.144333   
856.500000	0.138348   
857.000000	0.053030   
857.500000	0.109325   
858.000000	0.184045   
858.500000	0.170765   
859.000000	-0.003999  
859.500000	-0.190227  
860.000000	-0.264500  
860.500000	-0.159318  
861.000000	0.024568   
861.500000	0.142007   
862.000000	0.106068   
862.500000	-0.026606  
863.000000	-0.108287  
863.500000	-0.042924  
864.000000	0.025863   
864.500000	0.067643   
865.000000	0.047810   
865.500000	0.021401   
866.000000	-0.020689  
866.500000	-0.081939  
867.000000	-0.138621  
867.500000	-0.213106  
868.000000	-0.253651  
868.500000	-0.235666  
869.000000	-0.120515  
869.500000	-0.025068  
870.000000	0.041424   
870.500000	0.037106   
871.000000	0.014681   
871.500000	-0.033613  
872.000000	-0.089583  
872.500000	-0.092469  
873.000000	-0.053151  
873.500000	0.010045   
874.000000	0.032500   
874.500000	0.046810   
875.000000	-0.041522  
875.500000	-0.114643  
876.000000	-0.153712  
876.500000	-0.010454  
877.000000	0.065583   
877.500000	0.031340   
878.000000	-0.139560  
878.500000	-0.159606  
879.000000	-0.077893  
879.500000	0.026590   
880.000000	0.075530   
880.500000	0.025840   
881.000000	-0.043106  
881.500000	-0.156871  
882.000000	-0.219939  
882.500000	-0.289484  
883.000000	-0.312446  
883.500000	-0.295590  
884.000000	-0.177159  
884.500000	-0.137537  
885.000000	-0.230439  
885.500000	-0.264795  
886.000000	-0.163901  
886.500000	0.071287   
887.000000	0.198446   
887.500000	0.239954   
888.000000	0.096007   
888.500000	-0.053007  
889.000000	-0.186606  
889.500000	-0.157977  
890.000000	-0.155128  
890.500000	-0.139659  
891.000000	-0.103515  
891.500000	-0.060303  
892.000000	-0.167083  
892.500000	-0.321250  
893.000000	-0.341378  
893.500000	-0.158946  
894.000000	0.037075   
894.500000	0.125659   
895.000000	0.003128   
895.500000	-0.167992  
896.000000	-0.210257  
896.500000	-0.065234  
897.000000	0.099969   
897.500000	0.143212   
898.000000	0.061462   
898.500000	0.012265   
899.000000	0.028325   
899.500000	0.074704   
900.000000	-0.003734  
900.500000	-0.268000  

