PE FL                   SPECTRUM    ASCII       PEDS        1.60        
  -1
S12R#51.SP
24/04/15
16:50:59.00
24/04/15
16:52:24.00
Jan

900.500000
1









LS55
405.00
5.00
5.00
SCAN
1
20
100
100
0
400
0
1
0
1
5
ON
900 405 
1 0 0
#HDR
-1
-1
#GR
NM

0.00002384185791015625
0.0
450.000000
0.500000
902
8
149.949113
-0.618742
#DATA
450.000000	0.671999   
450.500000	0.187689   
451.000000	-0.139477  
451.500000	-0.217409  
452.000000	-0.229795  
452.500000	-0.212568  
453.000000	-0.237174  
453.500000	-0.160848  
454.000000	-0.140454  
454.500000	-0.371803  
455.000000	-0.618742  
455.500000	-0.601803  
456.000000	-0.163242  
456.500000	0.141159   
457.000000	0.187166   
457.500000	-0.013727  
458.000000	-0.030545  
458.500000	-0.004143  
459.000000	0.005386   
459.500000	-0.135477  
460.000000	-0.190318  
460.500000	-0.121560  
461.000000	0.007477   
461.500000	-0.009734  
462.000000	-0.052901  
462.500000	0.016901   
463.000000	0.110053   
463.500000	0.024265   
464.000000	-0.153833  
464.500000	-0.312856  
465.000000	-0.241053  
465.500000	-0.170037  
466.000000	-0.150174  
466.500000	-0.320098  
467.000000	-0.333371  
467.500000	-0.254075  
468.000000	-0.071681  
468.500000	-0.234742  
469.000000	-0.368515  
469.500000	-0.324106  
470.000000	-0.075704  
470.500000	-0.044553  
471.000000	-0.134856  
471.500000	-0.202212  
472.000000	-0.099310  
472.500000	-0.016537  
473.000000	-0.091280  
473.500000	-0.203742  
474.000000	-0.294098  
474.500000	-0.168681  
475.000000	-0.067416  
475.500000	-0.011136  
476.000000	-0.156143  
476.500000	-0.203265  
477.000000	-0.207984  
477.500000	-0.067287  
478.000000	0.012666   
478.500000	0.102098   
479.000000	0.103280   
479.500000	0.178954   
480.000000	0.194674   
480.500000	0.289727   
481.000000	0.234916   
481.500000	0.185522   
482.000000	-0.002128  
482.500000	-0.015962  
483.000000	-0.046500  
483.500000	0.016272   
484.000000	-0.048303  
484.500000	-0.152553  
485.000000	-0.317674  
485.500000	-0.315295  
486.000000	-0.122666  
486.500000	0.170053   
487.000000	0.282257   
487.500000	0.140030   
488.000000	-0.013242  
488.500000	-0.064712  
489.000000	0.013090   
489.500000	0.004424   
490.000000	0.093015   
490.500000	0.054590   
491.000000	-0.016272  
491.500000	-0.263598  
492.000000	-0.388742  
492.500000	-0.247772  
493.000000	0.025295   
493.500000	0.176295   
494.000000	0.051515   
494.500000	-0.093969  
495.000000	-0.111666  
495.500000	0.065901   
496.000000	0.231295   
496.500000	0.249090   
497.000000	0.244659   
497.500000	0.200386   
498.000000	0.298378   
498.500000	0.380886   
499.000000	0.531613   
499.500000	0.691295   
500.000000	0.921772   
500.500000	0.996401   
501.000000	0.845750   
501.500000	0.634242   
502.000000	0.510068   
502.500000	0.527628   
503.000000	0.563484   
503.500000	0.636840   
504.000000	0.758984   
504.500000	0.972962   
505.000000	1.170727   
505.500000	1.300386   
506.000000	1.421681   
506.500000	1.571590   
507.000000	1.731159   
507.500000	1.769287   
508.000000	1.797916   
508.500000	1.896265   
509.000000	2.049181   
509.500000	2.166931   
510.000000	2.220143   
510.500000	2.250446   
511.000000	2.364553   
511.500000	2.552689   
512.000000	2.697992   
512.500000	2.717378   
513.000000	2.600916   
513.500000	2.528734   
514.000000	2.579560   
514.500000	2.728666   
515.000000	2.852696   
515.500000	2.924484   
516.000000	3.008651   
516.500000	3.227378   
517.000000	3.416242   
517.500000	3.345439   
518.000000	3.068515   
518.500000	2.911386   
519.000000	3.006083   
519.500000	3.209931   
520.000000	3.408022   
520.500000	3.359310   
521.000000	3.164909   
521.500000	3.024015   
522.000000	3.133189   
522.500000	3.275863   
523.000000	3.289931   
523.500000	3.270825   
524.000000	3.364969   
524.500000	3.625280   
525.000000	3.864712   
525.500000	4.184287   
526.000000	4.479787   
526.500000	4.695780   
527.000000	4.842083   
527.500000	4.836757   
528.000000	4.892310   
528.500000	4.863583   
529.000000	4.875909   
529.500000	4.929628   
530.000000	5.068106   
530.500000	5.398636   
531.000000	5.567651   
531.500000	5.718750   
532.000000	5.820553   
532.500000	6.153916   
533.000000	6.556780   
533.500000	7.176500   
534.000000	7.558787   
534.500000	7.530833   
535.000000	7.286901   
535.500000	7.330613   
536.000000	7.941674   
536.500000	8.895310   
537.000000	9.667409   
537.500000	10.227712  
538.000000	10.489878  
538.500000	10.835022  
539.000000	11.186340  
539.500000	11.834727  
540.000000	12.427931  
540.500000	13.067234  
541.000000	13.260719  
541.500000	13.236931  
542.000000	13.272954  
542.500000	13.637500  
543.000000	13.725295  
543.500000	13.298924  
544.000000	12.851189  
544.500000	12.700022  
545.000000	12.605893  
545.500000	11.923204  
546.000000	11.094765  
546.500000	10.459583  
547.000000	9.850598   
547.500000	8.967992   
548.000000	8.063712   
548.500000	7.529363   
549.000000	7.330984   
549.500000	7.077696   
550.000000	6.470939   
550.500000	5.631515   
551.000000	4.949454   
551.500000	4.676621   
552.000000	4.735719   
552.500000	4.530363   
553.000000	4.052136   
553.500000	3.456098   
554.000000	3.120606   
554.500000	3.091977   
555.000000	3.191242   
555.500000	3.216219   
556.000000	3.083439   
556.500000	2.984537   
557.000000	2.984318   
557.500000	3.196643   
558.000000	3.346060   
558.500000	3.371969   
559.000000	3.297515   
559.500000	3.206583   
560.000000	3.124356   
560.500000	2.980037   
561.000000	2.936401   
561.500000	3.099553   
562.000000	3.392113   
562.500000	3.429969   
563.000000	3.303719   
563.500000	3.167803   
564.000000	3.074636   
564.500000	2.943409   
565.000000	2.884037   
565.500000	2.985719   
566.000000	3.101606   
566.500000	3.075636   
567.000000	2.998939   
567.500000	3.093393   
568.000000	3.206893   
568.500000	3.204651   
569.000000	3.185090   
569.500000	3.318007   
570.000000	3.512924   
570.500000	3.620333   
571.000000	3.542909   
571.500000	3.400795   
572.000000	3.411833   
572.500000	3.545727   
573.000000	3.564795   
573.500000	3.346181   
574.000000	3.016810   
574.500000	2.887909   
575.000000	2.956462   
575.500000	3.078568   
576.000000	3.122522   
576.500000	3.179628   
577.000000	3.176598   
577.500000	3.304727   
578.000000	3.481992   
578.500000	3.511946   
579.000000	3.345219   
579.500000	3.165242   
580.000000	3.206431   
580.500000	3.372128   
581.000000	3.604075   
581.500000	3.784575   
582.000000	3.960242   
582.500000	3.916621   
583.000000	3.776098   
583.500000	3.656386   
584.000000	3.554871   
584.500000	3.553015   
585.000000	3.592272   
585.500000	3.822083   
586.000000	3.922863   
586.500000	3.777840   
587.000000	3.467545   
587.500000	3.473803   
588.000000	3.724818   
588.500000	3.896219   
589.000000	3.908356   
589.500000	3.842159   
590.000000	4.035666   
590.500000	4.224553   
591.000000	4.271128   
591.500000	3.893765   
592.000000	3.555015   
592.500000	3.695143   
593.000000	4.450356   
593.500000	5.083363   
594.000000	5.173037   
594.500000	4.978515   
595.000000	4.936946   
595.500000	5.031219   
596.000000	5.020234   
596.500000	5.184795   
597.000000	5.435954   
597.500000	5.800856   
598.000000	5.847893   
598.500000	5.882166   
599.000000	5.775659   
599.500000	5.761901   
600.000000	5.738886   
600.500000	5.726878   
601.000000	5.671303   
601.500000	5.712484   
602.000000	6.088613   
602.500000	6.619689   
603.000000	6.894015   
603.500000	6.885992   
604.000000	6.910212   
604.500000	7.113378   
605.000000	7.310969   
605.500000	7.758348   
606.000000	8.409757   
606.500000	8.998295   
607.000000	9.053310   
607.500000	8.681613   
608.000000	8.511409   
608.500000	8.797749   
609.000000	9.400378   
609.500000	10.023734  
610.000000	10.534212  
610.500000	10.847060  
611.000000	11.144250  
611.500000	11.588689  
612.000000	12.114045  
612.500000	12.496750  
613.000000	12.517401  
613.500000	12.525219  
614.000000	12.682280  
614.500000	13.135515  
615.000000	13.722954  
615.500000	14.346530  
616.000000	14.795530  
616.500000	15.081257  
617.000000	15.531409  
617.500000	16.188833  
618.000000	16.700484  
618.500000	17.196681  
619.000000	17.845931  
619.500000	18.853325  
620.000000	19.600469  
620.500000	20.454000  
621.000000	21.250106  
621.500000	22.105015  
622.000000	22.358416  
622.500000	23.243068  
623.000000	24.495280  
623.500000	25.766886  
624.000000	25.991454  
624.500000	26.221545  
625.000000	26.755234  
625.500000	28.072143  
626.000000	29.031931  
626.500000	30.440924  
627.000000	31.785553  
627.500000	33.288204  
628.000000	34.253310  
628.500000	35.480545  
629.000000	36.604613  
629.500000	38.115946  
630.000000	39.532886  
630.500000	41.037696  
631.000000	42.909931  
631.500000	44.919939  
632.000000	46.664416  
632.500000	47.423886  
633.000000	47.756227  
633.500000	48.187295  
634.000000	49.134196  
634.500000	50.439477  
635.000000	52.429098  
635.500000	55.111234  
636.000000	56.991848  
636.500000	57.845181  
637.000000	58.890636  
637.500000	61.243901  
638.000000	63.701969  
638.500000	65.481651  
639.000000	66.695886  
639.500000	68.374545  
640.000000	70.185325  
640.500000	71.733007  
641.000000	73.436310  
641.500000	75.380136  
642.000000	77.398583  
642.500000	79.259318  
643.000000	81.330439  
643.500000	83.135984  
644.000000	85.045545  
644.500000	86.676159  
645.000000	88.534121  
645.500000	90.199545  
646.000000	92.043674  
646.500000	93.986719  
647.000000	96.006727  
647.500000	97.686310  
648.000000	99.382143  
648.500000	101.337068 
649.000000	103.860643 
649.500000	106.834992 
650.000000	108.596280 
650.500000	109.711515 
651.000000	110.521818 
651.500000	112.153446 
652.000000	113.522833 
652.500000	114.750409 
653.000000	115.758833 
653.500000	117.381219 
654.000000	119.596386 
654.500000	121.261530 
655.000000	122.608643 
655.500000	123.721848 
656.000000	125.474030 
656.500000	127.338621 
657.000000	128.909446 
657.500000	130.448348 
658.000000	132.724143 
658.500000	133.909886 
659.000000	133.654189 
659.500000	133.556704 
660.000000	135.903500 
660.500000	138.769295 
661.000000	141.070340 
661.500000	141.199969 
662.000000	141.625530 
662.500000	141.750325 
663.000000	142.681257 
663.500000	143.608719 
664.000000	144.726636 
664.500000	145.228931 
665.000000	146.494287 
665.500000	147.075651 
666.000000	147.100250 
666.500000	145.738492 
667.000000	146.426500 
667.500000	148.409272 
668.000000	149.949113 
668.500000	149.646704 
669.000000	149.534727 
669.500000	149.605128 
670.000000	148.993257 
670.500000	147.266553 
671.000000	145.764696 
671.500000	145.525901 
672.000000	146.191484 
672.500000	146.467454 
673.000000	146.748704 
673.500000	145.168704 
674.000000	143.455083 
674.500000	142.498621 
675.000000	143.399992 
675.500000	143.232750 
676.000000	140.986401 
676.500000	138.080469 
677.000000	135.941818 
677.500000	134.066742 
678.000000	131.392946 
678.500000	128.928545 
679.000000	127.821863 
679.500000	127.191030 
680.000000	125.777606 
680.500000	123.163227 
681.000000	120.962340 
681.500000	119.445795 
682.000000	119.771287 
682.500000	119.163712 
683.000000	117.176151 
683.500000	113.233068 
684.000000	110.407409 
684.500000	107.688234 
685.000000	105.633621 
685.500000	102.778946 
686.000000	101.189151 
686.500000	99.312181  
687.000000	97.200250  
687.500000	94.483810  
688.000000	93.129924  
688.500000	91.953234  
689.000000	90.086553  
689.500000	86.508901  
690.000000	83.255212  
690.500000	80.559287  
691.000000	78.689454  
691.500000	76.601689  
692.000000	75.085287  
692.500000	73.813340  
693.000000	71.882916  
693.500000	68.606393  
694.000000	65.521234  
694.500000	63.749613  
695.000000	62.745265  
695.500000	61.794772  
696.000000	60.077628  
696.500000	57.707871  
697.000000	55.481734  
697.500000	53.917500  
698.000000	53.316371  
698.500000	52.310613  
699.000000	50.234553  
699.500000	47.755484  
700.000000	45.998348  
700.500000	45.372219  
701.000000	44.810219  
701.500000	43.909295  
702.000000	42.599068  
702.500000	41.196833  
703.000000	39.555893  
703.500000	37.908787  
704.000000	36.855659  
704.500000	35.911886  
705.000000	34.989303  
705.500000	33.370462  
706.000000	32.549121  
706.500000	32.160007  
707.000000	32.181439  
707.500000	31.270787  
708.000000	30.180575  
708.500000	28.880159  
709.000000	28.132416  
709.500000	27.162030  
710.000000	26.399257  
710.500000	25.444787  
711.000000	24.797068  
711.500000	24.339840  
712.000000	24.063325  
712.500000	23.628901  
713.000000	22.842871  
713.500000	22.145477  
714.000000	21.323037  
714.500000	20.452060  
715.000000	19.578363  
715.500000	18.706022  
716.000000	17.955856  
716.500000	17.858750  
717.000000	18.152818  
717.500000	18.005886  
718.000000	17.149931  
718.500000	16.007818  
719.000000	15.241098  
719.500000	14.908250  
720.000000	14.929583  
720.500000	14.893621  
721.000000	14.461818  
721.500000	13.641234  
722.000000	13.054083  
722.500000	13.001098  
723.000000	12.981106  
723.500000	12.828833  
724.000000	12.399484  
724.500000	12.234840  
725.000000	12.129863  
725.500000	12.157780  
726.000000	11.879250  
726.500000	11.553045  
727.000000	11.147742  
727.500000	10.932901  
728.000000	10.762931  
728.500000	10.445136  
729.000000	9.959015   
729.500000	9.602568   
730.000000	9.378681   
730.500000	9.104916   
731.000000	8.820818   
731.500000	8.552689   
732.000000	8.531090   
732.500000	8.457348   
733.000000	8.357712   
733.500000	8.150886   
734.000000	8.077969   
734.500000	7.952924   
735.000000	7.788477   
735.500000	7.439636   
736.000000	7.339962   
736.500000	7.454090   
737.000000	7.558681   
737.500000	7.353234   
738.000000	6.953280   
738.500000	6.614878   
739.000000	6.537401   
739.500000	6.666469   
740.000000	6.676136   
740.500000	6.548871   
741.000000	6.468575   
741.500000	6.523303   
742.000000	6.373537   
742.500000	6.113681   
743.000000	5.900045   
743.500000	6.032901   
744.000000	5.993500   
744.500000	5.517136   
745.000000	4.950946   
745.500000	5.052863   
746.000000	5.646901   
746.500000	6.034575   
747.000000	5.621825   
747.500000	4.878431   
748.000000	4.610234   
748.500000	4.792530   
749.000000	5.023636   
749.500000	5.087166   
750.000000	4.961439   
750.500000	4.697409   
751.000000	4.508969   
751.500000	4.464878   
752.000000	4.614659   
752.500000	4.640825   
753.000000	4.633196   
753.500000	4.723999   
754.000000	4.874227   
754.500000	4.736386   
755.000000	4.387772   
755.500000	4.008310   
756.000000	3.864878   
756.500000	3.934628   
757.000000	3.997537   
757.500000	3.984666   
758.000000	3.984856   
758.500000	3.971810   
759.000000	3.801575   
759.500000	3.599780   
760.000000	3.528863   
760.500000	3.724946   
761.000000	3.940583   
761.500000	4.015651   
762.000000	3.934272   
762.500000	3.876242   
763.000000	3.715393   
763.500000	3.472863   
764.000000	3.291181   
764.500000	3.327984   
765.000000	3.512371   
765.500000	3.598886   
766.000000	3.638840   
766.500000	3.569689   
767.000000	3.471522   
767.500000	3.271257   
768.000000	3.241212   
768.500000	3.285500   
769.000000	3.305886   
769.500000	3.300833   
770.000000	3.369765   
770.500000	3.428833   
771.000000	3.298151   
771.500000	3.075022   
772.000000	2.999628   
772.500000	3.066810   
773.000000	3.208893   
773.500000	3.195234   
774.000000	3.238628   
774.500000	3.150106   
775.000000	3.084575   
775.500000	2.957674   
776.000000	3.012227   
776.500000	3.060121   
777.000000	3.115492   
777.500000	3.070545   
778.000000	2.976333   
778.500000	2.889787   
779.000000	2.957128   
779.500000	3.083431   
780.000000	3.115515   
780.500000	2.938833   
781.000000	2.757871   
781.500000	2.707787   
782.000000	2.868401   
782.500000	2.972590   
783.000000	3.009015   
783.500000	2.810318   
784.000000	2.679325   
784.500000	2.665818   
785.000000	2.814113   
785.500000	2.815159   
786.000000	2.652030   
786.500000	2.408750   
787.000000	2.387931   
787.500000	2.603704   
788.000000	2.692409   
788.500000	2.567939   
789.000000	2.338227   
789.500000	2.349356   
790.000000	2.511325   
790.500000	2.601818   
791.000000	2.554454   
791.500000	2.442742   
792.000000	2.327484   
792.500000	2.257651   
793.000000	2.334439   
793.500000	2.443484   
794.000000	2.615325   
794.500000	2.528719   
795.000000	2.257916   
795.500000	2.018060   
796.000000	2.175568   
796.500000	2.343500   
797.000000	2.329840   
797.500000	2.137750   
798.000000	2.260666   
798.500000	2.375310   
799.000000	2.240515   
799.500000	1.927712   
800.000000	1.873969   
800.500000	2.018492   
801.000000	2.088901   
801.500000	1.999825   
802.000000	1.827825   
802.500000	1.798356   
803.000000	1.955000   
803.500000	2.176848   
804.000000	2.210477   
804.500000	2.064719   
805.000000	1.852818   
805.500000	1.662750   
806.000000	1.514265   
806.500000	1.421113   
807.000000	1.473090   
807.500000	1.509765   
808.000000	1.453212   
808.500000	1.488696   
809.000000	1.562242   
809.500000	1.552340   
810.000000	1.460462   
810.500000	1.402227   
811.000000	1.497446   
811.500000	1.528431   
812.000000	1.585901   
812.500000	1.719106   
813.000000	1.872681   
813.500000	1.817022   
814.000000	1.708204   
814.500000	1.529568   
815.000000	1.316787   
815.500000	1.192060   
816.000000	1.351780   
816.500000	1.671212   
817.000000	1.837674   
817.500000	1.701257   
818.000000	1.501121   
818.500000	1.298431   
819.000000	1.365674   
819.500000	1.568681   
820.000000	1.742977   
820.500000	1.677098   
821.000000	1.681333   
821.500000	1.835106   
822.000000	2.045136   
822.500000	2.148916   
823.000000	2.270606   
823.500000	2.467560   
824.000000	2.520924   
824.500000	2.525143   
825.000000	2.512992   
825.500000	2.585977   
826.000000	2.522719   
826.500000	2.433265   
827.000000	2.251909   
827.500000	2.034545   
828.000000	1.720681   
828.500000	1.441272   
829.000000	1.270431   
829.500000	1.276121   
830.000000	1.319659   
830.500000	1.450954   
831.000000	1.352272   
831.500000	1.184196   
832.000000	0.994068   
832.500000	1.076810   
833.000000	1.148530   
833.500000	1.275977   
834.000000	1.272590   
834.500000	1.320931   
835.000000	1.137643   
835.500000	0.930833   
836.000000	0.827522   
836.500000	0.959606   
837.000000	0.987121   
837.500000	0.951893   
838.000000	0.927606   
838.500000	0.924598   
839.000000	0.838121   
839.500000	0.683969   
840.000000	0.705106   
840.500000	0.836401   
841.000000	0.938689   
841.500000	0.931689   
842.000000	0.822651   
842.500000	0.613121   
843.000000	0.434015   
843.500000	0.535560   
844.000000	0.709560   
844.500000	0.717765   
845.000000	0.467636   
845.500000	0.340560   
846.000000	0.361772   
846.500000	0.498431   
847.000000	0.418106   
847.500000	0.431492   
848.000000	0.452840   
848.500000	0.550659   
849.000000	0.415643   
849.500000	0.307295   
850.000000	0.216090   
850.500000	0.352833   
851.000000	0.367560   
851.500000	0.241575   
852.000000	0.020878   
852.500000	-0.082712  
853.000000	0.001659   
853.500000	0.161477   
854.000000	0.136893   
854.500000	-0.064007  
855.000000	-0.143643  
855.500000	0.002007   
856.000000	0.240378   
856.500000	0.283257   
857.000000	0.129553   
857.500000	-0.030848  
858.000000	-0.057515  
858.500000	-0.032946  
859.000000	-0.033075  
859.500000	-0.095704  
860.000000	-0.126181  
860.500000	-0.107022  
861.000000	-0.024454  
861.500000	0.038287   
862.000000	0.087590   
862.500000	0.044893   
863.000000	-0.000143  
863.500000	0.015212   
864.000000	0.165962   
864.500000	0.246242   
865.000000	0.199166   
865.500000	0.047318   
866.000000	-0.049636  
866.500000	-0.121636  
867.000000	-0.110787  
867.500000	-0.078545  
868.000000	0.001977   
868.500000	-0.017916  
869.000000	-0.077742  
869.500000	-0.135909  
870.000000	-0.081992  
870.500000	-0.056681  
871.000000	-0.014515  
871.500000	-0.030606  
872.000000	-0.025750  
872.500000	-0.108621  
873.000000	-0.241409  
873.500000	-0.379803  
874.000000	-0.336265  
874.500000	-0.170446  
875.000000	0.002075   
875.500000	0.018871   
876.000000	-0.024045  
876.500000	-0.059280  
877.000000	-0.063909  
877.500000	-0.058106  
878.000000	-0.096795  
878.500000	-0.090272  
879.000000	-0.070196  
879.500000	-0.013424  
880.000000	0.030719   
880.500000	0.004931   
881.000000	-0.073878  
881.500000	-0.152212  
882.000000	-0.081454  
882.500000	0.015590   
883.000000	0.103689   
883.500000	0.055181   
884.000000	0.072030   
884.500000	0.092310   
885.000000	0.107143   
885.500000	0.058121   
886.000000	0.021856   
886.500000	-0.034060  
887.000000	-0.123242  
887.500000	-0.221424  
888.000000	-0.205848  
888.500000	-0.157992  
889.000000	-0.083295  
889.500000	-0.057136  
890.000000	-0.071999  
890.500000	-0.092992  
891.000000	-0.143143  
891.500000	-0.118015  
892.000000	-0.108030  
892.500000	-0.065204  
893.000000	-0.081310  
893.500000	-0.008106  
894.000000	0.029901   
894.500000	0.079219   
895.000000	0.066333   
895.500000	0.058795   
896.000000	0.083454   
896.500000	0.150818   
897.000000	0.168659   
897.500000	0.141962   
898.000000	0.004287   
898.500000	-0.104113  
899.000000	-0.158613  
899.500000	-0.089659  
900.000000	-0.051500  
900.500000	-0.032999  

