PE FL                   SPECTRUM    ASCII       PEDS        1.60        
  -1
S12R#56.SP
24/04/15
16:58:06.00
24/04/15
16:59:32.00
Jan

900.500000
1









LS55
405.00
5.00
5.00
SCAN
1
20
100
100
0
400
0
1
0
1
5
ON
900 405 
1 0 0
#HDR
-1
-1
#GR
NM

0.00002384185791015625
0.0
450.000000
0.500000
902
8
145.135196
-0.463484
#DATA
450.000000	0.598000   
450.500000	0.106393   
451.000000	-0.220659  
451.500000	-0.283969  
452.000000	-0.139530  
452.500000	0.067446   
453.000000	0.254522   
453.500000	0.243500   
454.000000	0.034886   
454.500000	-0.265992  
455.000000	-0.314863  
455.500000	-0.064871  
456.000000	0.131265   
456.500000	0.094454   
457.000000	0.015499   
457.500000	-0.010765  
458.000000	-0.033083  
458.500000	-0.087424  
459.000000	-0.024053  
459.500000	0.073848   
460.000000	0.027098   
460.500000	-0.330977  
461.000000	-0.463484  
461.500000	-0.396174  
462.000000	-0.119257  
462.500000	-0.062083  
463.000000	0.007916   
463.500000	0.030742   
464.000000	0.124772   
464.500000	0.015689   
465.000000	-0.143037  
465.500000	-0.313075  
466.000000	-0.330939  
466.500000	-0.253030  
467.000000	-0.057189  
467.500000	0.011628   
468.000000	-0.049015  
468.500000	-0.153719  
469.000000	-0.165204  
469.500000	-0.096007  
470.000000	0.053787   
470.500000	0.211477   
471.000000	0.232984   
471.500000	-0.049992  
472.000000	-0.237280  
472.500000	-0.241909  
473.000000	-0.019098  
473.500000	-0.032265  
474.000000	-0.003212  
474.500000	-0.115522  
475.000000	-0.164848  
475.500000	-0.300969  
476.000000	-0.224212  
476.500000	-0.115234  
477.000000	-0.123348  
477.500000	-0.129606  
478.000000	-0.060780  
478.500000	0.041439   
479.000000	-0.023371  
479.500000	-0.119500  
480.000000	-0.159901  
480.500000	-0.090431  
481.000000	-0.069689  
481.500000	-0.124265  
482.000000	-0.152030  
482.500000	-0.175553  
483.000000	-0.134007  
483.500000	-0.144969  
484.000000	-0.078113  
484.500000	-0.121621  
485.000000	-0.083098  
485.500000	-0.079106  
486.000000	0.140136   
486.500000	0.139659   
487.000000	0.110598   
487.500000	0.037893   
488.000000	0.262659   
488.500000	0.396696   
489.000000	0.316750   
489.500000	-0.059636  
490.000000	-0.310287  
490.500000	-0.321386  
491.000000	-0.069651  
491.500000	0.268878   
492.000000	0.517303   
492.500000	0.493378   
493.000000	0.285174   
493.500000	0.050037   
494.000000	0.016727   
494.500000	0.217219   
495.000000	0.502537   
495.500000	0.688462   
496.000000	0.510878   
496.500000	0.295810   
497.000000	0.292583   
497.500000	0.556166   
498.000000	0.607780   
498.500000	0.533083   
499.000000	0.479499   
499.500000	0.655621   
500.000000	0.773393   
500.500000	0.812469   
501.000000	0.804674   
501.500000	0.771136   
502.000000	0.677795   
502.500000	0.674803   
503.000000	0.784287   
503.500000	0.882174   
504.000000	0.807484   
504.500000	0.658075   
505.000000	0.746037   
505.500000	1.029007   
506.000000	1.389189   
506.500000	1.539143   
507.000000	1.553113   
507.500000	1.424901   
508.000000	1.468492   
508.500000	1.634356   
509.000000	2.023303   
509.500000	2.275977   
510.000000	2.436454   
510.500000	2.432234   
511.000000	2.494651   
511.500000	2.474075   
512.000000	2.469409   
512.500000	2.428121   
513.000000	2.568318   
513.500000	2.746030   
514.000000	2.956106   
514.500000	3.003431   
515.000000	2.898878   
515.500000	2.717833   
516.000000	2.632734   
516.500000	2.700575   
517.000000	2.887568   
517.500000	3.113613   
518.000000	3.090136   
518.500000	3.174606   
519.000000	3.293780   
519.500000	3.616621   
520.000000	3.651621   
520.500000	3.581371   
521.000000	3.379659   
521.500000	3.283500   
522.000000	3.154954   
522.500000	3.199401   
523.000000	3.401757   
523.500000	3.555068   
524.000000	3.704681   
524.500000	3.621954   
525.000000	3.433727   
525.500000	3.310356   
526.000000	3.625121   
526.500000	3.860204   
527.000000	4.000484   
527.500000	4.190113   
528.000000	4.688712   
528.500000	5.098795   
529.000000	5.114257   
529.500000	5.020810   
530.000000	5.002909   
530.500000	5.270878   
531.000000	5.609530   
531.500000	5.979575   
532.000000	6.011689   
532.500000	6.048166   
533.000000	6.265318   
533.500000	6.730371   
534.000000	7.190098   
534.500000	7.425674   
535.000000	7.482439   
535.500000	7.613606   
536.000000	8.176348   
536.500000	9.193727   
537.000000	10.308780  
537.500000	11.024287  
538.000000	11.195121  
538.500000	11.297916  
539.000000	11.632045  
539.500000	12.141060  
540.000000	12.464037  
540.500000	12.933068  
541.000000	13.438462  
541.500000	13.814681  
542.000000	13.609242  
542.500000	13.446674  
543.000000	13.255818  
543.500000	13.126795  
544.000000	12.455219  
544.500000	11.904469  
545.000000	11.522621  
545.500000	11.270189  
546.000000	10.588621  
546.500000	9.786227   
547.000000	9.145295   
547.500000	8.752484   
548.000000	8.226484   
548.500000	7.605727   
549.000000	7.246204   
549.500000	7.008621   
550.000000	6.520712   
550.500000	5.840000   
551.000000	5.233651   
551.500000	4.762803   
552.000000	4.296174   
552.500000	3.909007   
553.000000	3.787931   
553.500000	3.834159   
554.000000	3.745295   
554.500000	3.530446   
555.000000	3.407833   
555.500000	3.392022   
556.000000	3.281045   
556.500000	3.097689   
557.000000	3.003424   
557.500000	3.077287   
558.000000	3.217636   
558.500000	3.204643   
559.000000	3.091621   
559.500000	3.082416   
560.000000	3.183606   
560.500000	3.283810   
561.000000	3.244439   
561.500000	3.058628   
562.000000	2.931484   
562.500000	2.831712   
563.000000	2.839083   
563.500000	2.948719   
564.000000	3.253696   
564.500000	3.320530   
565.000000	3.203530   
565.500000	2.882022   
566.000000	2.857431   
566.500000	2.954143   
567.000000	3.137477   
567.500000	3.121553   
568.000000	3.192613   
568.500000	3.210462   
569.000000	3.302409   
569.500000	3.251515   
570.000000	3.179477   
570.500000	3.136545   
571.000000	3.311393   
571.500000	3.475166   
572.000000	3.538295   
572.500000	3.408242   
573.000000	3.245590   
573.500000	3.127348   
574.000000	3.074946   
574.500000	3.084060   
575.000000	3.232454   
575.500000	3.479409   
576.000000	3.653068   
576.500000	3.567787   
577.000000	3.279083   
577.500000	3.150772   
578.000000	3.329863   
578.500000	3.709340   
579.000000	3.960946   
579.500000	3.905272   
580.000000	3.609954   
580.500000	3.350553   
581.000000	3.360825   
581.500000	3.466962   
582.000000	3.460439   
582.500000	3.178666   
583.000000	2.976287   
583.500000	2.956371   
584.000000	3.276659   
584.500000	3.551250   
585.000000	3.802212   
585.500000	3.849227   
586.000000	4.071280   
586.500000	4.083250   
587.000000	3.952136   
587.500000	3.573681   
588.000000	3.390477   
588.500000	3.328106   
589.000000	3.432363   
589.500000	3.596750   
590.000000	3.989825   
590.500000	4.185348   
591.000000	4.011765   
591.500000	3.788969   
592.000000	4.020113   
592.500000	4.424871   
593.000000	4.723787   
593.500000	4.801469   
594.000000	5.018454   
594.500000	5.189750   
595.000000	5.135787   
595.500000	5.040000   
596.000000	5.293613   
596.500000	5.510227   
597.000000	5.730090   
597.500000	5.795469   
598.000000	5.942500   
598.500000	5.827212   
599.000000	5.779318   
599.500000	5.750007   
600.000000	6.090295   
600.500000	6.360287   
601.000000	6.512772   
601.500000	6.429469   
602.000000	6.406166   
602.500000	6.743810   
603.000000	7.247469   
603.500000	7.413962   
604.000000	7.360204   
604.500000	7.475712   
605.000000	7.698310   
605.500000	7.677916   
606.000000	7.745621   
606.500000	8.252833   
607.000000	8.967886   
607.500000	9.370219   
608.000000	9.384037   
608.500000	9.487159   
609.000000	9.798409   
609.500000	10.291371  
610.000000	10.658583  
610.500000	10.823939  
611.000000	10.978424  
611.500000	11.337340  
612.000000	11.976439  
612.500000	12.536136  
613.000000	13.112939  
613.500000	13.424045  
614.000000	13.809939  
614.500000	13.792916  
615.000000	14.163628  
615.500000	14.857363  
616.000000	16.071287  
616.500000	16.869734  
617.000000	17.319568  
617.500000	17.369386  
618.000000	17.855015  
618.500000	18.431772  
619.000000	19.191757  
619.500000	19.692416  
620.000000	20.414681  
620.500000	21.326568  
621.000000	22.562818  
621.500000	23.414136  
622.000000	23.870083  
622.500000	24.035666  
623.000000	24.549492  
623.500000	25.684780  
624.000000	26.805560  
624.500000	27.856780  
625.000000	28.680363  
625.500000	29.918106  
626.000000	30.973303  
626.500000	31.964393  
627.000000	32.889492  
627.500000	34.337704  
628.000000	36.006128  
628.500000	37.782431  
629.000000	38.851439  
629.500000	39.205757  
630.000000	39.417045  
630.500000	40.593863  
631.000000	42.503174  
631.500000	44.393893  
632.000000	45.705227  
632.500000	46.554098  
633.000000	47.688166  
633.500000	49.156151  
634.000000	51.093325  
634.500000	53.271772  
635.000000	55.379833  
635.500000	56.781272  
636.000000	57.996439  
636.500000	59.856681  
637.000000	61.835515  
637.500000	63.509515  
638.000000	64.324409  
638.500000	65.721522  
639.000000	67.298878  
639.500000	69.009499  
640.000000	70.747833  
640.500000	73.296166  
641.000000	75.927954  
641.500000	78.137757  
642.000000	80.134984  
642.500000	82.070272  
643.000000	84.372613  
643.500000	86.067371  
644.000000	87.080409  
644.500000	88.190249  
645.000000	90.358939  
645.500000	93.036318  
646.000000	94.719522  
646.500000	95.799765  
647.000000	96.983507  
647.500000	99.389409  
648.000000	101.246265 
648.500000	102.920204 
649.000000	104.177833 
649.500000	105.717250 
650.000000	107.535348 
650.500000	109.497022 
651.000000	111.266492 
651.500000	112.471568 
652.000000	113.419424 
652.500000	114.970272 
653.000000	117.346007 
653.500000	119.365431 
654.000000	120.622159 
654.500000	121.663787 
655.000000	122.742590 
655.500000	124.437446 
656.000000	126.299265 
656.500000	128.419477 
657.000000	130.350575 
657.500000	131.434159 
658.000000	132.041401 
658.500000	132.408393 
659.000000	132.888810 
659.500000	133.636628 
660.000000	136.127098 
660.500000	138.575643 
661.000000	140.137250 
661.500000	140.122106 
662.000000	139.416401 
662.500000	139.964166 
663.000000	140.395454 
663.500000	140.878053 
664.000000	140.622128 
664.500000	142.053651 
665.000000	143.565818 
665.500000	145.135196 
666.000000	143.993825 
666.500000	142.552401 
667.000000	142.131780 
667.500000	143.239227 
668.000000	144.502787 
668.500000	144.707878 
669.000000	143.417477 
669.500000	141.995916 
670.000000	141.147689 
670.500000	141.624772 
671.000000	142.254234 
671.500000	142.169136 
672.000000	140.823674 
672.500000	139.333750 
673.000000	138.016742 
673.500000	136.665159 
674.000000	135.490613 
674.500000	133.792325 
675.000000	132.532151 
675.500000	130.275757 
676.000000	128.779196 
676.500000	127.449333 
677.000000	127.405583 
677.500000	127.065901 
678.000000	127.242893 
678.500000	126.329909 
679.000000	124.202234 
679.500000	121.398719 
680.000000	118.910295 
680.500000	116.951621 
681.000000	114.621628 
681.500000	112.756484 
682.000000	111.575992 
682.500000	110.441446 
683.000000	108.516469 
683.500000	106.161310 
684.000000	103.941166 
684.500000	101.713045 
685.000000	98.998765  
685.500000	96.054393  
686.000000	93.301719  
686.500000	91.041075  
687.000000	88.742075  
687.500000	86.817575  
688.000000	85.161196  
688.500000	84.470477  
689.000000	83.135515  
689.500000	80.852462  
690.000000	77.836424  
690.500000	75.165749  
691.000000	73.166621  
691.500000	71.302848  
692.000000	69.584325  
692.500000	67.695196  
693.000000	66.286196  
693.500000	64.774939  
694.000000	63.420075  
694.500000	61.032992  
695.000000	58.776136  
695.500000	56.870174  
696.000000	56.103499  
696.500000	54.553189  
697.000000	52.364045  
697.500000	49.870250  
698.000000	48.319946  
698.500000	47.774810  
699.000000	47.406545  
699.500000	46.338000  
700.000000	43.725765  
700.500000	41.382590  
701.000000	39.817840  
701.500000	39.461303  
702.000000	38.649530  
702.500000	37.556462  
703.000000	36.154310  
703.500000	34.648704  
704.000000	33.050045  
704.500000	32.096393  
705.000000	31.681454  
705.500000	31.360007  
706.000000	30.535106  
706.500000	29.744090  
707.000000	28.914719  
707.500000	28.303628  
708.000000	27.042856  
708.500000	26.060575  
709.000000	25.525628  
709.500000	25.394053  
710.000000	24.643257  
710.500000	23.953356  
711.000000	23.500174  
711.500000	23.395515  
712.000000	22.574333  
712.500000	21.232386  
713.000000	20.046462  
713.500000	19.505250  
714.000000	19.463507  
714.500000	19.667939  
715.000000	19.622689  
715.500000	18.930075  
716.000000	18.149825  
716.500000	17.748416  
717.000000	17.447363  
717.500000	16.947780  
718.000000	16.270666  
718.500000	15.776545  
719.000000	15.085234  
719.500000	14.384575  
720.000000	13.948825  
720.500000	14.123545  
721.000000	14.233265  
721.500000	14.059128  
722.000000	13.317750  
722.500000	12.386113  
723.000000	11.707931  
723.500000	11.693886  
724.000000	11.990363  
724.500000	12.054401  
725.000000	11.939878  
725.500000	11.648189  
726.000000	11.362803  
726.500000	10.784643  
727.000000	10.132393  
727.500000	9.507166   
728.000000	9.339181   
728.500000	9.389840   
729.000000	9.425909   
729.500000	9.082333   
730.000000	8.789946   
730.500000	8.875810   
731.000000	9.220984   
731.500000	9.309446   
732.000000	8.943477   
732.500000	8.381068   
733.000000	7.963878   
733.500000	7.782984   
734.000000	7.528568   
734.500000	7.401196   
735.000000	7.256507   
735.500000	7.251128   
736.000000	6.991128   
736.500000	6.767810   
737.000000	6.535098   
737.500000	6.646333   
738.000000	6.724166   
738.500000	6.768833   
739.000000	6.597553   
739.500000	6.544643   
740.000000	6.518174   
740.500000	6.363598   
741.000000	6.080787   
741.500000	5.961500   
742.000000	6.010795   
742.500000	6.069901   
743.000000	5.857363   
743.500000	5.536901   
744.000000	5.238500   
744.500000	5.284757   
745.000000	5.412318   
745.500000	5.458939   
746.000000	5.242803   
746.500000	5.204492   
747.000000	5.111340   
747.500000	4.906280   
748.000000	4.553000   
748.500000	4.567659   
749.000000	4.749803   
749.500000	4.811719   
750.000000	4.654113   
750.500000	4.697734   
751.000000	4.820522   
751.500000	4.684909   
752.000000	4.080749   
752.500000	3.774954   
753.000000	3.990492   
753.500000	4.535833   
754.000000	4.725484   
754.500000	4.724878   
755.000000	4.622166   
755.500000	4.498287   
756.000000	4.185674   
756.500000	3.937886   
757.000000	3.758037   
757.500000	3.623856   
758.000000	3.446863   
758.500000	3.538446   
759.000000	3.864613   
759.500000	4.271159   
760.000000	4.228651   
760.500000	3.910265   
761.000000	3.462174   
761.500000	3.448530   
762.000000	3.628159   
762.500000	3.717803   
763.000000	3.533712   
763.500000	3.415840   
764.000000	3.517803   
764.500000	3.635378   
765.000000	3.632166   
765.500000	3.515500   
766.000000	3.454393   
766.500000	3.428969   
767.000000	3.481939   
767.500000	3.591931   
768.000000	3.557833   
768.500000	3.397696   
769.000000	3.244878   
769.500000	3.319984   
770.000000	3.384878   
770.500000	3.373143   
771.000000	3.257757   
771.500000	3.174363   
772.000000	3.083530   
772.500000	3.029772   
773.000000	3.040659   
773.500000	3.137666   
774.000000	3.166954   
774.500000	3.168712   
775.000000	3.096780   
775.500000	3.012174   
776.000000	2.829878   
776.500000	2.766886   
777.000000	2.836583   
777.500000	3.000772   
778.000000	3.054159   
778.500000	3.031515   
779.000000	3.022340   
779.500000	3.048818   
780.000000	3.033674   
780.500000	2.881272   
781.000000	2.763795   
781.500000	2.751909   
782.000000	2.890166   
782.500000	2.946575   
783.000000	2.786393   
783.500000	2.563325   
784.000000	2.413393   
784.500000	2.427348   
785.000000	2.528643   
785.500000	2.720946   
786.000000	2.816734   
786.500000	2.821090   
787.000000	2.730621   
787.500000	2.715977   
788.000000	2.781295   
788.500000	2.792886   
789.000000	2.771946   
789.500000	2.739825   
790.000000	2.745712   
790.500000	2.721560   
791.000000	2.667090   
791.500000	2.489795   
792.000000	2.321886   
792.500000	2.208022   
793.000000	2.228212   
793.500000	2.175227   
794.000000	2.119106   
794.500000	2.134333   
795.000000	2.385128   
795.500000	2.437287   
796.000000	2.303424   
796.500000	2.169318   
797.000000	2.236803   
797.500000	2.266924   
798.000000	2.227272   
798.500000	2.314409   
799.000000	2.451477   
799.500000	2.554386   
800.000000	2.468174   
800.500000	2.358234   
801.000000	2.054621   
801.500000	1.803727   
802.000000	1.668537   
802.500000	1.855909   
803.000000	2.041568   
803.500000	2.197530   
804.000000	2.108742   
804.500000	1.910060   
805.000000	1.829916   
805.500000	2.005371   
806.000000	2.203212   
806.500000	2.245856   
807.000000	2.100803   
807.500000	1.874901   
808.000000	1.623371   
808.500000	1.577401   
809.000000	1.756363   
809.500000	1.989106   
810.000000	1.766750   
810.500000	1.421575   
811.000000	1.096984   
811.500000	1.211257   
812.000000	1.474265   
812.500000	1.705484   
813.000000	1.626492   
813.500000	1.402765   
814.000000	1.247537   
814.500000	1.351954   
815.000000	1.571295   
815.500000	1.653674   
816.000000	1.604439   
816.500000	1.439500   
817.000000	1.342787   
817.500000	1.366901   
818.000000	1.608098   
818.500000	1.911689   
819.000000	2.015939   
819.500000	1.853719   
820.000000	1.676204   
820.500000	1.715212   
821.000000	1.891598   
821.500000	2.106727   
822.000000	2.330909   
822.500000	2.436757   
823.000000	2.417643   
823.500000	2.386575   
824.000000	2.539931   
824.500000	2.733424   
825.000000	2.828356   
825.500000	2.736204   
826.000000	2.554113   
826.500000	2.298575   
827.000000	1.977810   
827.500000	1.758090   
828.000000	1.596113   
828.500000	1.609613   
829.000000	1.732333   
829.500000	1.746340   
830.000000	1.652666   
830.500000	1.441848   
831.000000	1.339954   
831.500000	1.281734   
832.000000	1.372075   
832.500000	1.396575   
833.000000	1.395666   
833.500000	1.249893   
834.000000	1.157909   
834.500000	1.105750   
835.000000	1.081462   
835.500000	1.074128   
836.000000	1.138696   
836.500000	1.148174   
837.000000	1.045939   
837.500000	0.890992   
838.000000	0.893219   
838.500000	0.913984   
839.000000	0.886522   
839.500000	0.735166   
840.000000	0.636484   
840.500000	0.631545   
841.000000	0.787416   
841.500000	0.972484   
842.000000	0.988348   
842.500000	0.892363   
843.000000	0.729022   
843.500000	0.567613   
844.000000	0.279121   
844.500000	0.125363   
845.000000	0.166765   
845.500000	0.342098   
846.000000	0.451166   
846.500000	0.374401   
847.000000	0.302750   
847.500000	0.279863   
848.000000	0.415265   
848.500000	0.408681   
849.000000	0.298946   
849.500000	0.178030   
850.000000	0.313227   
850.500000	0.391121   
851.000000	0.343984   
851.500000	0.198212   
852.000000	0.107803   
852.500000	0.115712   
853.000000	0.163272   
853.500000	0.145818   
854.000000	0.102386   
854.500000	0.102590   
855.000000	0.130204   
855.500000	0.056666   
856.000000	-0.108310  
856.500000	-0.106840  
857.000000	0.099401   
857.500000	0.263750   
858.000000	0.235803   
858.500000	0.040280   
859.000000	-0.079257  
859.500000	-0.005250  
860.000000	0.150090   
860.500000	0.152772   
861.000000	0.040325   
861.500000	-0.121121  
862.000000	-0.046977  
862.500000	0.095515   
863.000000	0.177462   
863.500000	0.004500   
864.000000	-0.197098  
864.500000	-0.237545  
865.000000	-0.050666  
865.500000	0.074795   
866.000000	0.010204   
866.500000	-0.107393  
867.000000	-0.157795  
867.500000	-0.118825  
868.000000	-0.101500  
868.500000	-0.142590  
869.000000	-0.187871  
869.500000	-0.171174  
870.000000	-0.052295  
870.500000	0.008984   
871.000000	0.003022   
871.500000	-0.044712  
872.000000	0.007787   
872.500000	0.038871   
873.000000	-0.032840  
873.500000	-0.125742  
874.000000	-0.143613  
874.500000	-0.183719  
875.000000	-0.288174  
875.500000	-0.319037  
876.000000	-0.288780  
876.500000	-0.288931  
877.000000	-0.307674  
877.500000	-0.190409  
878.000000	-0.116628  
878.500000	-0.150568  
879.000000	-0.189689  
879.500000	-0.006181  
880.000000	0.138363   
880.500000	0.127174   
881.000000	0.005704   
881.500000	-0.055803  
882.000000	-0.109204  
882.500000	-0.058969  
883.000000	0.086560   
883.500000	0.167803   
884.000000	0.067356   
884.500000	-0.019462  
885.000000	0.010643   
885.500000	0.105977   
886.000000	0.090106   
886.500000	0.016295   
887.000000	-0.011840  
887.500000	0.041886   
888.000000	0.064348   
888.500000	-0.059598  
889.000000	-0.290757  
889.500000	-0.461636  
890.000000	-0.411212  
890.500000	-0.334303  
891.000000	-0.290113  
891.500000	-0.287000  
892.000000	-0.221007  
892.500000	-0.162613  
893.000000	-0.133689  
893.500000	-0.085068  
894.000000	-0.004893  
894.500000	0.012666   
895.000000	-0.154106  
895.500000	-0.261090  
896.000000	-0.211386  
896.500000	-0.014962  
897.000000	0.089083   
897.500000	0.061780   
898.000000	-0.039946  
898.500000	-0.155659  
899.000000	-0.243151  
899.500000	-0.221613  
900.000000	-0.019121  
900.500000	0.300000   

