PE FL                   SPECTRUM    ASCII       PEDS        1.60        
  -1
S12R#45.SP
24/04/15
16:42:25.00
24/04/15
16:43:51.00
Jan

900.500000
1









LS55
405.00
5.00
5.00
SCAN
1
20
100
100
0
400
0
1
0
1
5
ON
900 405 
1 0 0
#HDR
-1
-1
#GR
NM

0.00002384185791015625
0.0
450.000000
0.500000
902
8
159.134000
-0.465000
#DATA
450.000000	0.531999   
450.500000	0.198992   
451.000000	-0.043530  
451.500000	-0.157848  
452.000000	-0.169469  
452.500000	-0.087249  
453.000000	-0.004946  
453.500000	-0.010234  
454.000000	-0.089893  
454.500000	-0.088553  
455.000000	-0.039356  
455.500000	-0.136825  
456.000000	-0.286287  
456.500000	-0.354371  
457.000000	-0.150628  
457.500000	0.072840   
458.000000	0.203325   
458.500000	0.082560   
459.000000	0.014651   
459.500000	-0.004946  
460.000000	0.112878   
460.500000	0.003818   
461.000000	-0.174856  
461.500000	-0.240628  
462.000000	-0.085734  
462.500000	0.095689   
463.000000	0.194780   
463.500000	0.270674   
464.000000	0.301272   
464.500000	0.201848   
465.000000	0.091454   
465.500000	0.087174   
466.000000	0.024666   
466.500000	-0.147113  
467.000000	-0.234393  
467.500000	-0.204431  
468.000000	-0.153431  
468.500000	-0.065553  
469.000000	0.082833   
469.500000	0.304378   
470.000000	0.258015   
470.500000	0.143742   
471.000000	0.053439   
471.500000	0.095931   
472.000000	0.064939   
472.500000	-0.036348  
473.000000	-0.196818  
473.500000	-0.366424  
474.000000	-0.422022  
474.500000	-0.434871  
475.000000	-0.295606  
475.500000	-0.143090  
476.000000	0.024159   
476.500000	-0.044856  
477.000000	-0.227257  
477.500000	-0.328022  
478.000000	-0.154878  
478.500000	-0.041613  
479.000000	-0.084651  
479.500000	-0.231196  
480.000000	-0.181568  
480.500000	0.018909   
481.000000	0.126621   
481.500000	0.066681   
482.000000	-0.110469  
482.500000	-0.047666  
483.000000	0.041189   
483.500000	0.177287   
484.000000	0.129234   
484.500000	0.207371   
485.000000	0.242242   
485.500000	0.269060   
486.000000	0.037446   
486.500000	-0.109893  
487.000000	-0.182825  
487.500000	-0.105893  
488.000000	-0.143196  
488.500000	-0.173522  
489.000000	-0.323977  
489.500000	-0.390265  
490.000000	-0.447121  
490.500000	-0.374757  
491.000000	-0.243871  
491.500000	-0.077037  
492.000000	0.137643   
492.500000	0.261446   
493.000000	0.285484   
493.500000	0.138780   
494.000000	0.179128   
494.500000	0.186810   
495.000000	0.268234   
495.500000	0.227651   
496.000000	0.261681   
496.500000	0.266174   
497.000000	0.355954   
497.500000	0.397659   
498.000000	0.497386   
498.500000	0.543045   
499.000000	0.531818   
499.500000	0.507083   
500.000000	0.576545   
500.500000	0.613303   
501.000000	0.628772   
501.500000	0.601780   
502.000000	0.775265   
502.500000	0.950272   
503.000000	0.994128   
503.500000	0.892492   
504.000000	0.831522   
504.500000	0.816719   
505.000000	0.856090   
505.500000	1.028636   
506.000000	1.234901   
506.500000	1.375136   
507.000000	1.411015   
507.500000	1.515772   
508.000000	1.582946   
508.500000	1.668643   
509.000000	1.758977   
509.500000	1.934719   
510.000000	2.133295   
510.500000	2.326310   
511.000000	2.468356   
511.500000	2.650787   
512.000000	2.821765   
512.500000	3.019530   
513.000000	3.022272   
513.500000	2.826098   
514.000000	2.690393   
514.500000	2.888492   
515.000000	3.139659   
515.500000	3.108742   
516.000000	3.017500   
516.500000	3.040757   
517.000000	3.204204   
517.500000	3.184742   
518.000000	3.057833   
518.500000	2.949242   
519.000000	2.886227   
519.500000	2.856378   
520.000000	2.887583   
520.500000	3.110712   
521.000000	3.327666   
521.500000	3.441219   
522.000000	3.238333   
522.500000	3.019484   
523.000000	2.927863   
523.500000	3.055681   
524.000000	3.208818   
524.500000	3.399590   
525.000000	3.617227   
525.500000	3.912068   
526.000000	4.227666   
526.500000	4.531863   
527.000000	4.720583   
527.500000	4.727507   
528.000000	4.886871   
528.500000	5.095954   
529.000000	5.253606   
529.500000	5.084598   
530.000000	5.058613   
530.500000	5.426681   
531.000000	6.068818   
531.500000	6.322333   
532.000000	6.299409   
532.500000	6.418000   
533.000000	6.543969   
533.500000	6.739196   
534.000000	6.952348   
534.500000	7.566439   
535.000000	8.163469   
535.500000	8.336492   
536.000000	8.307159   
536.500000	8.792068   
537.000000	9.721704   
537.500000	10.548098  
538.000000	11.089378  
538.500000	11.470000  
539.000000	11.605522  
539.500000	11.663530  
540.000000	11.744416  
540.500000	12.380325  
541.000000	13.106462  
541.500000	13.632159  
542.000000	13.614242  
542.500000	13.322856  
543.000000	13.000371  
543.500000	12.790651  
544.000000	12.442166  
544.500000	11.733106  
545.000000	11.238174  
545.500000	11.009674  
546.000000	10.656272  
546.500000	9.665378   
547.000000	8.874060   
547.500000	8.735742   
548.000000	8.971136   
548.500000	8.486962   
549.000000	7.498499   
549.500000	6.734386   
550.000000	6.280030   
550.500000	5.899984   
551.000000	5.253924   
551.500000	4.881962   
552.000000	4.478416   
552.500000	4.142000   
553.000000	3.550727   
553.500000	3.413901   
554.000000	3.467166   
554.500000	3.610613   
555.000000	3.564719   
555.500000	3.511795   
556.000000	3.385030   
556.500000	3.331833   
557.000000	3.347606   
557.500000	3.470765   
558.000000	3.414681   
558.500000	3.155136   
559.000000	2.918734   
559.500000	2.859477   
560.000000	2.877075   
560.500000	2.917136   
561.000000	3.072734   
561.500000	3.154492   
562.000000	3.243628   
562.500000	3.278174   
563.000000	3.352727   
563.500000	3.284962   
564.000000	3.167545   
564.500000	3.102954   
565.000000	3.183318   
565.500000	3.178386   
566.000000	3.153742   
566.500000	3.201674   
567.000000	3.297303   
567.500000	3.224780   
568.000000	3.253992   
568.500000	3.315068   
569.000000	3.498363   
569.500000	3.417560   
570.000000	3.309636   
570.500000	3.300962   
571.000000	3.420060   
571.500000	3.435772   
572.000000	3.569666   
572.500000	3.755515   
573.000000	3.902068   
573.500000	3.733234   
574.000000	3.478181   
574.500000	3.222500   
575.000000	3.202901   
575.500000	3.147303   
576.000000	3.352219   
576.500000	3.410674   
577.000000	3.339280   
577.500000	3.100219   
578.000000	3.212825   
578.500000	3.443742   
579.000000	3.519295   
579.500000	3.267803   
580.000000	3.066500   
580.500000	3.114598   
581.000000	3.291992   
581.500000	3.517121   
582.000000	3.638333   
582.500000	3.693909   
583.000000	3.617598   
583.500000	3.694045   
584.000000	3.840946   
584.500000	3.993719   
585.000000	3.879833   
585.500000	3.690090   
586.000000	3.592666   
586.500000	3.654787   
587.000000	3.755045   
587.500000	3.863348   
588.000000	3.937227   
588.500000	3.905287   
589.000000	3.907893   
589.500000	4.035909   
590.000000	4.168181   
590.500000	4.274090   
591.000000	4.304780   
591.500000	4.375287   
592.000000	4.365333   
592.500000	4.368363   
593.000000	4.530757   
593.500000	4.724772   
594.000000	4.737598   
594.500000	4.494204   
595.000000	4.442477   
595.500000	4.598477   
596.000000	5.036651   
596.500000	5.150833   
597.000000	5.001962   
597.500000	4.894553   
598.000000	5.121924   
598.500000	5.346984   
599.000000	5.424992   
599.500000	5.518083   
600.000000	5.651401   
600.500000	5.855825   
601.000000	6.012469   
601.500000	6.254287   
602.000000	6.330204   
602.500000	6.312742   
603.000000	6.344909   
603.500000	6.566537   
604.000000	6.826909   
604.500000	6.929189   
605.000000	7.021446   
605.500000	7.250227   
606.000000	7.715500   
606.500000	8.111053   
607.000000	8.168378   
607.500000	8.098606   
608.000000	8.270045   
608.500000	8.837499   
609.000000	9.177530   
609.500000	9.420515   
610.000000	9.549992   
610.500000	9.796916   
611.000000	10.060378  
611.500000	10.483992  
612.000000	10.995090  
612.500000	11.637825  
613.000000	12.161530  
613.500000	12.548507  
614.000000	12.958212  
614.500000	13.306310  
615.000000	13.549856  
615.500000	13.600810  
616.000000	13.927090  
616.500000	14.557590  
617.000000	15.412446  
617.500000	16.051151  
618.000000	16.822113  
618.500000	17.443825  
619.000000	17.711659  
619.500000	17.746696  
620.000000	18.197121  
620.500000	19.041174  
621.000000	19.997742  
621.500000	20.860068  
622.000000	21.669916  
622.500000	22.618189  
623.000000	23.762916  
623.500000	24.772553  
624.000000	25.800886  
624.500000	26.347280  
625.000000	26.616098  
625.500000	27.038310  
626.000000	28.536765  
626.500000	30.507431  
627.000000	32.090636  
627.500000	32.542212  
628.000000	33.226825  
628.500000	34.713121  
629.000000	36.315939  
629.500000	37.184909  
630.000000	37.721507  
630.500000	38.716772  
631.000000	40.358295  
631.500000	42.104780  
632.000000	43.399515  
632.500000	45.144106  
633.000000	46.940303  
633.500000	48.598742  
634.000000	49.406916  
634.500000	50.064575  
635.000000	51.080962  
635.500000	52.919053  
636.000000	55.071484  
636.500000	57.001840  
637.000000	58.258356  
637.500000	59.375053  
638.000000	61.256659  
638.500000	63.713886  
639.000000	66.292659  
639.500000	68.981136  
640.000000	71.195416  
640.500000	72.460613  
641.000000	73.073257  
641.500000	74.235250  
642.000000	75.938060  
642.500000	77.886810  
643.000000	80.012969  
643.500000	82.644674  
644.000000	85.031515  
644.500000	86.158507  
645.000000	86.743272  
645.500000	88.261234  
646.000000	91.982280  
646.500000	94.795742  
647.000000	95.874007  
647.500000	95.859765  
648.000000	98.643818  
648.500000	102.379772 
649.000000	105.871772 
649.500000	107.309143 
650.000000	109.037484 
650.500000	110.344219 
651.000000	111.520628 
651.500000	112.230810 
652.000000	113.970848 
652.500000	116.281075 
653.000000	119.128893 
653.500000	121.687128 
654.000000	123.755757 
654.500000	125.403348 
655.000000	127.101250 
655.500000	129.123666 
656.000000	130.199659 
656.500000	130.858469 
657.000000	131.515696 
657.500000	134.046022 
658.000000	136.194401 
658.500000	138.552931 
659.000000	139.712121 
659.500000	141.180090 
660.000000	140.613340 
660.500000	142.218954 
661.000000	144.725810 
661.500000	148.231878 
662.000000	147.944818 
662.500000	147.966992 
663.000000	147.927060 
663.500000	149.578704 
664.000000	149.719765 
664.500000	150.373621 
665.000000	151.409068 
665.500000	152.324121 
666.000000	153.604636 
666.500000	156.122303 
667.000000	158.904060 
667.500000	159.134000 
668.000000	157.529810 
668.500000	156.136651 
669.000000	156.097818 
669.500000	156.875553 
670.000000	157.284651 
670.500000	157.286045 
671.000000	156.210015 
671.500000	155.584583 
672.000000	156.022712 
672.500000	156.375590 
673.000000	155.355810 
673.500000	153.739469 
674.000000	152.346848 
674.500000	151.886704 
675.000000	151.844424 
675.500000	151.934106 
676.000000	152.256719 
676.500000	151.746272 
677.000000	149.654924 
677.500000	145.390287 
678.000000	142.263643 
678.500000	141.249098 
679.000000	141.898257 
679.500000	140.861113 
680.000000	139.425742 
680.500000	138.743151 
681.000000	138.544431 
681.500000	136.486280 
682.000000	132.242022 
682.500000	127.803484 
683.000000	125.262386 
683.500000	124.635113 
684.000000	123.200992 
684.500000	120.580181 
685.000000	117.419674 
685.500000	115.210553 
686.000000	112.711219 
686.500000	110.113939 
687.000000	107.160068 
687.500000	104.796159 
688.000000	102.392363 
688.500000	99.708545  
689.000000	97.423227  
689.500000	95.584840  
690.000000	94.064787  
690.500000	92.188689  
691.000000	89.992234  
691.500000	87.675500  
692.000000	85.243484  
692.500000	82.660962  
693.000000	80.006530  
693.500000	77.809424  
694.000000	75.594249  
694.500000	73.260765  
695.000000	71.495719  
695.500000	70.320348  
696.000000	69.333280  
696.500000	67.145848  
697.000000	64.042856  
697.500000	61.091833  
698.000000	59.205734  
698.500000	57.868818  
699.000000	56.114499  
699.500000	54.406303  
700.000000	53.061128  
700.500000	52.409015  
701.000000	51.468189  
701.500000	50.000893  
702.000000	47.987931  
702.500000	45.980954  
703.000000	44.504742  
703.500000	43.667068  
704.000000	42.913469  
704.500000	41.346689  
705.000000	39.512863  
705.500000	38.131409  
706.000000	37.532545  
706.500000	36.849757  
707.000000	35.501787  
707.500000	33.599530  
708.000000	31.817825  
708.500000	31.106643  
709.000000	30.962750  
709.500000	30.628931  
710.000000	29.541871  
710.500000	28.545984  
711.000000	27.851537  
711.500000	27.397621  
712.000000	26.429545  
712.500000	25.448871  
713.000000	24.871757  
713.500000	24.488621  
714.000000	23.928181  
714.500000	23.308553  
715.000000	22.469219  
715.500000	21.424651  
716.000000	20.220060  
716.500000	19.384143  
717.000000	19.056522  
717.500000	18.899416  
718.000000	18.699325  
718.500000	18.548318  
719.000000	18.280643  
719.500000	17.673818  
720.000000	16.985977  
720.500000	16.693712  
721.000000	16.625242  
721.500000	16.489015  
722.000000	15.731643  
722.500000	14.690909  
723.000000	13.824068  
723.500000	13.520454  
724.000000	13.607909  
724.500000	13.475348  
725.000000	13.098689  
725.500000	12.679568  
726.000000	12.581863  
726.500000	12.106734  
727.000000	11.609401  
727.500000	11.261325  
728.000000	11.598765  
728.500000	11.416265  
729.000000	10.771492  
729.500000	10.034287  
730.000000	10.196787  
730.500000	10.270303  
731.000000	10.246946  
731.500000	9.930818   
732.000000	10.094469  
732.500000	9.955083   
733.000000	9.732303   
733.500000	9.337189   
734.000000	9.083674   
734.500000	8.552386   
735.000000	8.066159   
735.500000	7.792545   
736.000000	7.729962   
736.500000	7.735924   
737.000000	7.730045   
737.500000	7.730386   
738.000000	7.598106   
738.500000	7.368356   
739.000000	7.025727   
739.500000	6.659863   
740.000000	6.452280   
740.500000	6.479825   
741.000000	6.544378   
741.500000	6.611939   
742.000000	6.593295   
742.500000	6.373969   
743.000000	5.952204   
743.500000	5.881037   
744.000000	6.040863   
744.500000	6.146856   
745.000000	5.858484   
745.500000	5.576068   
746.000000	5.513704   
746.500000	5.763106   
747.000000	6.034174   
747.500000	6.056666   
748.000000	5.868234   
748.500000	5.710068   
749.000000	5.812060   
749.500000	5.569053   
750.000000	4.996946   
750.500000	4.531181   
751.000000	4.471666   
751.500000	4.573295   
752.000000	4.587530   
752.500000	4.757431   
753.000000	5.005719   
753.500000	5.237446   
754.000000	5.131454   
754.500000	4.790128   
755.000000	4.336318   
755.500000	4.098734   
756.000000	4.134333   
756.500000	4.286431   
757.000000	4.301378   
757.500000	4.119628   
758.000000	3.924840   
758.500000	3.771242   
759.000000	3.719537   
759.500000	3.729750   
760.000000	3.855893   
760.500000	3.850409   
761.000000	3.827500   
761.500000	3.682340   
762.000000	3.620189   
762.500000	3.508196   
763.000000	3.545128   
763.500000	3.682575   
764.000000	4.055234   
764.500000	4.335318   
765.000000	4.330128   
765.500000	3.848030   
766.000000	3.357227   
766.500000	3.171946   
767.000000	3.316560   
767.500000	3.482378   
768.000000	3.611181   
768.500000	3.726196   
769.000000	3.653015   
769.500000	3.468871   
770.000000	3.317742   
770.500000	3.431560   
771.000000	3.541318   
771.500000	3.531916   
772.000000	3.318068   
772.500000	3.193143   
773.000000	3.202265   
773.500000	3.336113   
774.000000	3.375825   
774.500000	3.276901   
775.000000	3.119750   
775.500000	2.970500   
776.000000	2.830022   
776.500000	2.728916   
777.000000	2.803454   
777.500000	2.977242   
778.000000	3.058772   
778.500000	3.046431   
779.000000	3.028363   
779.500000	2.996250   
780.000000	2.855409   
780.500000	2.835856   
781.000000	3.022204   
781.500000	3.223492   
782.000000	3.149136   
782.500000	3.006121   
783.000000	2.962356   
783.500000	2.955750   
784.000000	2.889075   
784.500000	2.788696   
785.000000	2.839530   
785.500000	2.795318   
786.000000	2.659977   
786.500000	2.442643   
787.000000	2.574204   
787.500000	2.736553   
788.000000	2.872848   
788.500000	2.680575   
789.000000	2.553242   
789.500000	2.524000   
790.000000	2.694727   
790.500000	2.774348   
791.000000	2.755575   
791.500000	2.572325   
792.000000	2.488212   
792.500000	2.549780   
793.000000	2.692984   
793.500000	2.701113   
794.000000	2.602015   
794.500000	2.510992   
795.000000	2.577833   
795.500000	2.677992   
796.000000	2.735840   
796.500000	2.595136   
797.000000	2.362333   
797.500000	2.090159   
798.000000	2.097015   
798.500000	2.228015   
799.000000	2.467348   
799.500000	2.547143   
800.000000	2.522984   
800.500000	2.425462   
801.000000	2.296522   
801.500000	2.144954   
802.000000	1.928590   
802.500000	1.945560   
803.000000	2.051121   
803.500000	2.121121   
804.000000	1.919878   
804.500000	1.775174   
805.000000	1.827378   
805.500000	1.974333   
806.000000	2.025507   
806.500000	2.006234   
807.000000	2.036386   
807.500000	1.954219   
808.000000	1.964295   
808.500000	1.943090   
809.000000	1.943946   
809.500000	1.758984   
810.000000	1.655689   
810.500000	1.780257   
811.000000	1.977878   
811.500000	1.918666   
812.000000	1.667651   
812.500000	1.556424   
813.000000	1.470401   
813.500000	1.361030   
814.000000	1.284424   
814.500000	1.578128   
815.000000	1.960000   
815.500000	2.033431   
816.000000	1.709628   
816.500000	1.414856   
817.000000	1.333007   
817.500000	1.266431   
818.000000	1.298000   
818.500000	1.415439   
819.000000	1.653674   
819.500000	1.643159   
820.000000	1.637666   
820.500000	1.577530   
821.000000	1.768818   
821.500000	1.885901   
822.000000	2.164234   
822.500000	2.516856   
823.000000	2.704969   
823.500000	2.606098   
824.000000	2.388598   
824.500000	2.433560   
825.000000	2.694515   
825.500000	2.881151   
826.000000	2.637613   
826.500000	2.229901   
827.000000	1.898666   
827.500000	1.790295   
828.000000	1.766181   
828.500000	1.857606   
829.000000	1.954765   
829.500000	2.017795   
830.000000	1.785363   
830.500000	1.492878   
831.000000	1.269553   
831.500000	1.194590   
832.000000	1.058893   
832.500000	0.940977   
833.000000	0.971265   
833.500000	1.109628   
834.000000	1.108871   
834.500000	0.955499   
835.000000	0.853553   
835.500000	0.952378   
836.000000	1.066757   
836.500000	1.112106   
837.000000	1.009613   
837.500000	0.955765   
838.000000	0.869856   
838.500000	0.889265   
839.000000	0.869537   
839.500000	0.853242   
840.000000	0.707333   
840.500000	0.600962   
841.000000	0.577984   
841.500000	0.740727   
842.000000	0.950227   
842.500000	0.915386   
843.000000	0.676893   
843.500000	0.423242   
844.000000	0.399045   
844.500000	0.498393   
845.000000	0.551060   
845.500000	0.499696   
846.000000	0.413068   
846.500000	0.332969   
847.000000	0.251121   
847.500000	0.268250   
848.000000	0.381871   
848.500000	0.583765   
849.000000	0.665954   
849.500000	0.560484   
850.000000	0.269272   
850.500000	0.110704   
851.000000	0.087992   
851.500000	0.164886   
852.000000	0.058825   
852.500000	-0.015045  
853.000000	-0.040090  
853.500000	0.028393   
854.000000	0.069128   
854.500000	0.115931   
855.000000	0.179939   
855.500000	0.103537   
856.000000	-0.084113  
856.500000	-0.229553  
857.000000	-0.234477  
857.500000	-0.144287  
858.000000	-0.024257  
858.500000	-0.032681  
859.000000	-0.135909  
859.500000	-0.197068  
860.000000	-0.111984  
860.500000	-0.069977  
861.000000	-0.047545  
861.500000	-0.060545  
862.000000	0.047386   
862.500000	0.071924   
863.000000	0.070954   
863.500000	-0.001810  
864.000000	0.022310   
864.500000	-0.087727  
865.000000	-0.172681  
865.500000	-0.263401  
866.000000	-0.191878  
866.500000	-0.128939  
867.000000	-0.078893  
867.500000	-0.121719  
868.000000	-0.067409  
868.500000	-0.011484  
869.000000	-0.052053  
869.500000	-0.124606  
870.000000	-0.201560  
870.500000	-0.128901  
871.000000	-0.055553  
871.500000	-0.006037  
872.000000	-0.028083  
872.500000	0.015151   
873.000000	0.022992   
873.500000	0.068303   
874.000000	-0.003492  
874.500000	-0.018590  
875.000000	-0.007318  
875.500000	0.073931   
876.000000	0.091015   
876.500000	0.013386   
877.000000	-0.093272  
877.500000	-0.123250  
878.000000	-0.065469  
878.500000	-0.017287  
879.000000	-0.027356  
879.500000	-0.080666  
880.000000	-0.086530  
880.500000	-0.040962  
881.000000	0.014136   
881.500000	0.035015   
882.000000	0.039924   
882.500000	0.015204   
883.000000	-0.028189  
883.500000	-0.089666  
884.000000	-0.073401  
884.500000	-0.074931  
885.000000	-0.045939  
885.500000	-0.037507  
886.000000	-0.081098  
886.500000	-0.107946  
887.000000	-0.147750  
887.500000	-0.102469  
888.000000	-0.166924  
888.500000	-0.180818  
889.000000	-0.229522  
889.500000	-0.178856  
890.000000	-0.288992  
890.500000	-0.291204  
891.000000	-0.223287  
891.500000	0.032174   
892.000000	0.065121   
892.500000	0.048272   
893.000000	-0.128810  
893.500000	-0.122234  
894.000000	-0.138136  
894.500000	-0.037871  
895.000000	-0.017431  
895.500000	0.042166   
896.000000	0.019954   
896.500000	0.032295   
897.000000	-0.011219  
897.500000	-0.085651  
898.000000	-0.170030  
898.500000	-0.089969  
899.000000	0.098863   
899.500000	0.227704   
900.000000	0.024946   
900.500000	-0.465000  

