PE FL                   SPECTRUM    ASCII       PEDS        1.60        
  -1
S12R#65.SP
24/04/15
17:10:57.00
24/04/15
17:12:22.00
Jan

900.500000
1









LS55
405.00
5.00
5.00
SCAN
1
20
100
100
0
400
0
1
0
1
5
ON
900 405 
1 0 0
#HDR
-1
-1
#GR
NM

0.00002384185791015625
0.0
450.000000
0.500000
902
8
131.811174
-0.934000
#DATA
450.000000	-0.934000  
450.500000	-0.137545  
451.000000	0.223681   
451.500000	0.261439   
452.000000	0.151227   
452.500000	-0.101613  
453.000000	-0.456863  
453.500000	-0.520704  
454.000000	-0.305409  
454.500000	-0.235242  
455.000000	-0.394272  
455.500000	-0.498795  
456.000000	-0.253606  
456.500000	0.024295   
457.000000	0.076037   
457.500000	-0.029325  
458.000000	-0.159333  
458.500000	-0.157272  
459.000000	-0.196856  
459.500000	-0.261393  
460.000000	-0.397674  
460.500000	-0.262931  
461.000000	-0.048303  
461.500000	0.169030   
462.000000	0.146257   
462.500000	0.088598   
463.000000	-0.010924  
463.500000	-0.030613  
464.000000	-0.030030  
464.500000	-0.003818  
465.000000	-0.010583  
465.500000	0.006257   
466.000000	0.075075   
466.500000	0.044681   
467.000000	-0.107484  
467.500000	-0.270075  
468.000000	-0.232734  
468.500000	-0.164356  
469.000000	-0.072015  
469.500000	0.008477   
470.000000	0.070272   
470.500000	-0.033825  
471.000000	-0.186037  
471.500000	-0.193151  
472.000000	-0.069719  
472.500000	0.015022   
473.000000	0.029484   
473.500000	0.124666   
474.000000	0.280204   
474.500000	0.309143   
475.000000	0.144787   
475.500000	-0.062181  
476.000000	-0.073712  
476.500000	-0.016530  
477.000000	-0.034159  
477.500000	-0.162954  
478.000000	-0.087681  
478.500000	0.097575   
479.000000	0.221340   
479.500000	0.083189   
480.000000	-0.121356  
480.500000	-0.208825  
481.000000	-0.210234  
481.500000	-0.241689  
482.000000	-0.240416  
482.500000	-0.188045  
483.000000	-0.088272  
483.500000	-0.092378  
484.000000	-0.169356  
484.500000	-0.121371  
485.000000	0.037916   
485.500000	0.112181   
486.000000	0.056227   
486.500000	-0.050318  
487.000000	-0.112727  
487.500000	-0.190121  
488.000000	-0.169272  
488.500000	-0.086757  
489.000000	0.107939   
489.500000	0.145446   
490.000000	0.130522   
490.500000	0.054530   
491.000000	0.026742   
491.500000	0.066318   
492.000000	0.051037   
492.500000	0.095189   
493.000000	0.072439   
493.500000	0.223719   
494.000000	0.184151   
494.500000	0.251803   
495.000000	0.082356   
495.500000	-0.018810  
496.000000	-0.082128  
496.500000	0.050462   
497.000000	0.130863   
497.500000	0.102424   
498.000000	0.070515   
498.500000	0.249143   
499.000000	0.607227   
499.500000	0.800560   
500.000000	0.847249   
500.500000	0.709333   
501.000000	0.631280   
501.500000	0.727060   
502.000000	0.846537   
502.500000	0.910287   
503.000000	0.953659   
503.500000	0.990257   
504.000000	1.052878   
504.500000	1.061689   
505.000000	1.115924   
505.500000	1.244757   
506.000000	1.417333   
506.500000	1.589871   
507.000000	1.811121   
507.500000	1.964204   
508.000000	1.919454   
508.500000	1.906871   
509.000000	1.835924   
509.500000	1.976530   
510.000000	2.013856   
510.500000	2.289371   
511.000000	2.572787   
511.500000	2.939765   
512.000000	3.013712   
512.500000	2.894484   
513.000000	2.696795   
513.500000	2.590416   
514.000000	2.723651   
514.500000	2.831916   
515.000000	2.979128   
515.500000	2.982560   
516.000000	3.022348   
516.500000	2.967984   
517.000000	3.051810   
517.500000	3.095613   
518.000000	3.156863   
518.500000	3.076181   
519.000000	3.075090   
519.500000	3.112075   
520.000000	3.205295   
520.500000	3.059848   
521.000000	2.972674   
521.500000	2.969507   
522.000000	3.056022   
522.500000	3.241727   
523.000000	3.434348   
523.500000	3.636909   
524.000000	3.727159   
524.500000	3.779075   
525.000000	3.772000   
525.500000	3.759537   
526.000000	3.759037   
526.500000	4.039734   
527.000000	4.521318   
527.500000	4.831825   
528.000000	4.914090   
528.500000	4.818053   
529.000000	4.792749   
529.500000	4.947106   
530.000000	5.317666   
530.500000	5.712636   
531.000000	5.902742   
531.500000	5.937696   
532.000000	6.173810   
532.500000	6.388454   
533.000000	6.425712   
533.500000	6.463795   
534.000000	6.751484   
534.500000	7.139098   
535.000000	7.446045   
535.500000	7.838856   
536.000000	8.426295   
536.500000	8.894060   
537.000000	9.149378   
537.500000	9.521143   
538.000000	9.992696   
538.500000	10.536962  
539.000000	11.117068  
539.500000	11.696143  
540.000000	12.269234  
540.500000	12.789469  
541.000000	13.489454  
541.500000	14.265446  
542.000000	14.503060  
542.500000	13.983007  
543.000000	13.371151  
543.500000	12.863022  
544.000000	12.412916  
544.500000	11.850840  
545.000000	11.497106  
545.500000	11.398613  
546.000000	11.119219  
546.500000	10.278401  
547.000000	9.201924   
547.500000	8.262219   
548.000000	7.661492   
548.500000	7.478931   
549.000000	7.209750   
549.500000	6.601962   
550.000000	5.592196   
550.500000	4.848310   
551.000000	4.482492   
551.500000	4.573265   
552.000000	4.458424   
552.500000	4.198969   
553.000000	3.789825   
553.500000	3.552681   
554.000000	3.403363   
554.500000	3.464363   
555.000000	3.449871   
555.500000	3.340424   
556.000000	3.174424   
556.500000	3.250606   
557.000000	3.389469   
557.500000	3.327393   
558.000000	3.035810   
558.500000	3.059196   
559.000000	3.395037   
559.500000	3.658446   
560.000000	3.562537   
560.500000	3.314257   
561.000000	3.175969   
561.500000	3.152757   
562.000000	3.145780   
562.500000	3.167992   
563.000000	3.330666   
563.500000	3.462151   
564.000000	3.441227   
564.500000	3.325272   
565.000000	3.268462   
565.500000	3.239409   
566.000000	3.085757   
566.500000	2.943696   
567.000000	2.988704   
567.500000	3.108734   
568.000000	3.123871   
568.500000	3.137931   
569.000000	3.164469   
569.500000	3.219386   
570.000000	3.387128   
570.500000	3.616037   
571.000000	3.629098   
571.500000	3.407757   
572.000000	3.188431   
572.500000	3.128098   
573.000000	3.076598   
573.500000	3.027303   
574.000000	3.186265   
574.500000	3.367030   
575.000000	3.400287   
575.500000	3.334893   
576.000000	3.398750   
576.500000	3.408787   
577.000000	3.378363   
577.500000	3.439151   
578.000000	3.591810   
578.500000	3.512537   
579.000000	3.291984   
579.500000	3.204303   
580.000000	3.377128   
580.500000	3.462265   
581.000000	3.479689   
581.500000	3.394780   
582.000000	3.326287   
582.500000	3.217734   
583.000000	3.291848   
583.500000	3.518719   
584.000000	3.768628   
584.500000	3.870575   
585.000000	3.856795   
585.500000	3.775765   
586.000000	3.601462   
586.500000	3.487045   
587.000000	3.540053   
587.500000	3.652545   
588.000000	3.800386   
588.500000	3.915015   
589.000000	3.985916   
589.500000	4.060886   
590.000000	4.261689   
590.500000	4.508446   
591.000000	4.719992   
591.500000	4.787371   
592.000000	4.748083   
592.500000	4.538196   
593.000000	4.317893   
593.500000	4.260075   
594.000000	4.563772   
594.500000	4.936954   
595.000000	5.330280   
595.500000	5.535393   
596.000000	5.733446   
596.500000	5.656946   
597.000000	5.563613   
597.500000	5.380189   
598.000000	5.567787   
598.500000	5.946318   
599.000000	6.276166   
599.500000	6.204931   
600.000000	6.200151   
600.500000	6.233363   
601.000000	6.311181   
601.500000	6.379060   
602.000000	6.530409   
602.500000	6.824848   
603.000000	7.098439   
603.500000	7.368613   
604.000000	7.491401   
604.500000	7.931606   
605.000000	8.407416   
605.500000	9.002363   
606.000000	9.167962   
606.500000	9.198871   
607.000000	9.195227   
607.500000	9.438583   
608.000000	9.891621   
608.500000	10.398106  
609.000000	10.833712  
609.500000	10.997356  
610.000000	11.292446  
610.500000	11.450636  
611.000000	11.825750  
611.500000	12.257704  
612.000000	13.155810  
612.500000	13.797568  
613.000000	14.348000  
613.500000	14.415037  
614.000000	14.756871  
614.500000	15.140484  
615.000000	15.710181  
615.500000	16.151227  
616.000000	16.338833  
616.500000	16.879045  
617.000000	17.592977  
617.500000	18.707507  
618.000000	19.323840  
618.500000	19.653257  
619.000000	19.545492  
619.500000	20.105734  
620.000000	21.188893  
620.500000	22.341098  
621.000000	23.349416  
621.500000	24.244454  
622.000000	25.246916  
622.500000	25.920515  
623.000000	26.293257  
623.500000	26.579189  
624.000000	27.576090  
624.500000	28.661272  
625.000000	29.780128  
625.500000	30.529765  
626.000000	31.916212  
626.500000	33.777113  
627.000000	35.583272  
627.500000	36.483530  
628.000000	36.966863  
628.500000	37.651393  
629.000000	38.351454  
629.500000	39.488030  
630.000000	41.471886  
630.500000	43.857068  
631.000000	45.761780  
631.500000	46.948787  
632.000000	48.340530  
632.500000	49.072909  
633.000000	49.677757  
633.500000	50.440833  
634.000000	53.002462  
634.500000	55.566787  
635.000000	57.167696  
635.500000	57.729060  
636.000000	58.750143  
636.500000	60.080878  
637.000000	61.598643  
637.500000	63.344151  
638.000000	65.592234  
638.500000	67.411969  
639.000000	68.372901  
639.500000	69.175553  
640.000000	70.460484  
640.500000	72.287431  
641.000000	74.425499  
641.500000	77.042037  
642.000000	79.734015  
642.500000	81.585696  
643.000000	83.288871  
643.500000	84.956553  
644.000000	86.578462  
644.500000	86.740977  
645.000000	88.110166  
645.500000	90.513196  
646.000000	94.079287  
646.500000	95.318196  
647.000000	95.618409  
647.500000	95.674439  
648.000000	96.772106  
648.500000	98.382848  
649.000000	100.352962 
649.500000	102.419098 
650.000000	103.753409 
650.500000	105.349643 
651.000000	106.977113 
651.500000	109.760939 
652.000000	111.820446 
652.500000	113.719348 
653.000000	114.529325 
653.500000	115.204568 
654.000000	116.103863 
654.500000	117.705000 
655.000000	118.976060 
655.500000	119.415772 
656.000000	119.436159 
656.500000	119.621992 
657.000000	120.760424 
657.500000	122.440992 
658.000000	124.907969 
658.500000	126.901954 
659.000000	127.871863 
659.500000	127.579659 
660.000000	127.097606 
660.500000	127.388689 
661.000000	128.808053 
661.500000	130.329901 
662.000000	130.591106 
662.500000	130.304196 
663.000000	130.070833 
663.500000	130.928765 
664.000000	131.322083 
664.500000	131.811174 
665.000000	130.929409 
665.500000	130.405712 
666.000000	129.613151 
666.500000	130.140893 
667.000000	130.407856 
667.500000	130.980174 
668.000000	131.210969 
668.500000	131.589280 
669.000000	131.690598 
669.500000	131.763939 
670.000000	131.708386 
670.500000	131.505424 
671.000000	130.322507 
671.500000	128.186242 
672.000000	125.213227 
672.500000	123.688575 
673.000000	123.071946 
673.500000	122.749242 
674.000000	121.385636 
674.500000	120.478083 
675.000000	119.827575 
675.500000	119.066325 
676.000000	117.172977 
676.500000	115.170098 
677.000000	113.561196 
677.500000	112.776378 
678.000000	111.619303 
678.500000	110.491750 
679.000000	109.019022 
679.500000	107.895401 
680.000000	106.021189 
680.500000	102.835378 
681.000000	99.064659  
681.500000	96.487454  
682.000000	95.298446  
682.500000	94.200871  
683.000000	92.154507  
683.500000	89.833174  
684.000000	87.573386  
684.500000	85.948272  
685.000000	83.995113  
685.500000	82.309878  
686.000000	79.977840  
686.500000	78.174515  
687.000000	75.842060  
687.500000	73.842522  
688.000000	71.528924  
688.500000	70.393840  
689.000000	69.689893  
689.500000	68.552181  
690.000000	66.315128  
690.500000	63.765628  
691.000000	61.950522  
691.500000	60.058598  
692.000000	58.216431  
692.500000	55.760060  
693.000000	54.118310  
693.500000	52.639810  
694.000000	51.442560  
694.500000	50.137371  
695.000000	49.066227  
695.500000	47.930757  
696.000000	46.515992  
696.500000	44.540893  
697.000000	42.676022  
697.500000	41.339507  
698.000000	40.605689  
698.500000	39.631409  
699.000000	38.521886  
699.500000	37.194325  
700.000000	36.623598  
700.500000	35.581060  
701.000000	34.484962  
701.500000	33.195750  
702.000000	32.165030  
702.500000	31.083689  
703.000000	30.368484  
703.500000	29.728590  
704.000000	28.791045  
704.500000	27.864007  
705.000000	26.988037  
705.500000	26.383893  
706.000000	25.170318  
706.500000	23.856696  
707.000000	22.874659  
707.500000	22.486053  
708.000000	22.159083  
708.500000	21.998909  
709.000000	21.802363  
709.500000	21.273295  
710.000000	20.425984  
710.500000	19.882537  
711.000000	19.688545  
711.500000	19.517159  
712.000000	18.966553  
712.500000	18.456204  
713.000000	18.012651  
713.500000	17.192090  
714.000000	16.328742  
714.500000	15.916590  
715.000000	16.128712  
715.500000	16.000643  
716.000000	15.679219  
716.500000	15.282015  
717.000000	15.319924  
717.500000	14.898939  
718.000000	14.253098  
718.500000	13.403780  
719.000000	12.955500  
719.500000	12.560136  
720.000000	12.181606  
720.500000	11.859416  
721.000000	11.827469  
721.500000	11.920416  
722.000000	11.700977  
722.500000	11.522568  
723.000000	11.321984  
723.500000	11.048151  
724.000000	10.387272  
724.500000	9.720803   
725.000000	9.338795   
725.500000	9.430977   
726.000000	9.586606   
726.500000	9.753507   
727.000000	9.634727   
727.500000	9.459310   
728.000000	9.089803   
728.500000	8.665015   
729.000000	8.041931   
729.500000	7.892234   
730.000000	8.002704   
730.500000	8.099719   
731.000000	7.824007   
731.500000	7.579219   
732.000000	7.555015   
732.500000	7.632424   
733.000000	7.565446   
733.500000	7.446159   
734.000000	7.283068   
734.500000	7.073613   
735.000000	6.856818   
735.500000	6.664492   
736.000000	6.581583   
736.500000	6.730159   
737.000000	6.703825   
737.500000	6.399083   
738.000000	6.002598   
738.500000	6.023401   
739.000000	5.980181   
739.500000	5.788878   
740.000000	5.529128   
740.500000	5.562151   
741.000000	5.617666   
741.500000	5.553174   
742.000000	5.509166   
742.500000	5.363643   
743.000000	5.156196   
743.500000	4.887060   
744.000000	5.016037   
744.500000	5.310871   
745.000000	5.543462   
745.500000	5.479030   
746.000000	5.155765   
746.500000	4.910159   
747.000000	4.715303   
747.500000	4.560515   
748.000000	4.242030   
748.500000	4.311621   
749.000000	4.665575   
749.500000	4.908931   
750.000000	4.571348   
750.500000	4.151984   
751.000000	4.159007   
751.500000	4.268833   
752.000000	4.002946   
752.500000	3.422068   
753.000000	3.284666   
753.500000	3.529386   
754.000000	3.929613   
754.500000	4.017992   
755.000000	4.028318   
755.500000	4.058151   
756.000000	4.179878   
756.500000	4.122924   
757.000000	4.031477   
757.500000	3.934689   
758.000000	3.913522   
758.500000	3.795045   
759.000000	3.682825   
759.500000	3.681939   
760.000000	3.743310   
760.500000	3.627030   
761.000000	3.501386   
761.500000	3.419121   
762.000000	3.626719   
762.500000	3.805901   
763.000000	3.804909   
763.500000	3.504393   
764.000000	3.290204   
764.500000	3.306537   
765.000000	3.498878   
765.500000	3.475136   
766.000000	3.301939   
766.500000	3.178363   
767.000000	3.176545   
767.500000	3.252257   
768.000000	3.283916   
768.500000	3.319916   
769.000000	3.201795   
769.500000	3.064083   
770.000000	2.919848   
770.500000	3.036696   
771.000000	3.127371   
771.500000	3.259287   
772.000000	3.225871   
772.500000	3.224401   
773.000000	3.237704   
773.500000	3.276310   
774.000000	3.247674   
774.500000	2.965181   
775.000000	2.737977   
775.500000	2.670916   
776.000000	2.878469   
776.500000	3.002325   
777.000000	3.076121   
777.500000	3.048810   
778.000000	3.066416   
778.500000	2.993090   
779.000000	2.812431   
779.500000	2.636113   
780.000000	2.642030   
780.500000	2.816446   
781.000000	2.936090   
781.500000	2.898454   
782.000000	2.855621   
782.500000	2.806295   
783.000000	2.720189   
783.500000	2.534416   
784.000000	2.506530   
784.500000	2.552719   
785.000000	2.624939   
785.500000	2.585795   
786.000000	2.625901   
786.500000	2.697386   
787.000000	2.814522   
787.500000	2.873378   
788.000000	2.875045   
788.500000	2.705522   
789.000000	2.453303   
789.500000	2.300659   
790.000000	2.339575   
790.500000	2.488500   
791.000000	2.584636   
791.500000	2.643121   
792.000000	2.653340   
792.500000	2.670265   
793.000000	2.715795   
793.500000	2.820606   
794.000000	2.879984   
794.500000	2.607568   
795.000000	2.309696   
795.500000	2.165651   
796.000000	2.456704   
796.500000	2.673803   
797.000000	2.786000   
797.500000	2.607143   
798.000000	2.445939   
798.500000	2.190416   
799.000000	2.121583   
799.500000	2.172303   
800.000000	2.209765   
800.500000	2.220734   
801.000000	2.247333   
801.500000	2.169484   
802.000000	1.764636   
802.500000	1.377431   
803.000000	1.368295   
803.500000	1.727159   
804.000000	1.973106   
804.500000	1.967643   
805.000000	1.743007   
805.500000	1.556666   
806.000000	1.587469   
806.500000	1.906356   
807.000000	2.232340   
807.500000	2.164962   
808.000000	1.811992   
808.500000	1.408696   
809.000000	1.272257   
809.500000	1.238484   
810.000000	1.440106   
810.500000	1.542810   
811.000000	1.794204   
811.500000	1.875189   
812.000000	1.890840   
812.500000	1.586424   
813.000000	1.335878   
813.500000	1.179280   
814.000000	1.220416   
814.500000	1.362727   
815.000000	1.564545   
815.500000	1.703590   
816.000000	1.538363   
816.500000	1.291810   
817.000000	1.166750   
817.500000	1.323757   
818.000000	1.563909   
818.500000	1.662265   
819.000000	1.644659   
819.500000	1.487848   
820.000000	1.539939   
820.500000	1.603318   
821.000000	1.760454   
821.500000	1.895681   
822.000000	2.116378   
822.500000	2.195060   
823.000000	2.091909   
823.500000	2.036257   
824.000000	2.141606   
824.500000	2.418666   
825.000000	2.660984   
825.500000	2.718977   
826.000000	2.558901   
826.500000	2.280242   
827.000000	2.147303   
827.500000	2.095871   
828.000000	2.092545   
828.500000	2.079810   
829.000000	2.079621   
829.500000	1.978469   
830.000000	1.739287   
830.500000	1.511204   
831.000000	1.334477   
831.500000	1.283090   
832.000000	1.305757   
832.500000	1.300886   
833.000000	1.139863   
833.500000	0.927303   
834.000000	0.913090   
834.500000	1.045856   
835.000000	1.096924   
835.500000	0.965954   
836.000000	0.803689   
836.500000	0.768181   
837.000000	0.813219   
837.500000	0.879962   
838.000000	0.800893   
838.500000	0.629628   
839.000000	0.429765   
839.500000	0.421984   
840.000000	0.479409   
840.500000	0.579477   
841.000000	0.686272   
841.500000	0.825818   
842.000000	0.841931   
842.500000	0.778651   
843.000000	0.637795   
843.500000	0.584386   
844.000000	0.609212   
844.500000	0.516280   
845.000000	0.249636   
845.500000	-0.030833  
846.000000	-0.067825  
846.500000	0.053871   
847.000000	0.202492   
847.500000	0.261272   
848.000000	0.374393   
848.500000	0.431848   
849.000000	0.490598   
849.500000	0.506409   
850.000000	0.419984   
850.500000	0.276098   
851.000000	0.208212   
851.500000	0.209272   
852.000000	0.150386   
852.500000	-0.004128  
853.000000	-0.070704  
853.500000	0.009409   
854.000000	0.215568   
854.500000	0.320174   
855.000000	0.279030   
855.500000	0.095143   
856.000000	0.046613   
856.500000	0.057666   
857.000000	0.084424   
857.500000	0.130962   
858.000000	0.215333   
858.500000	0.275280   
859.000000	0.144674   
859.500000	-0.081795  
860.000000	-0.184393  
860.500000	-0.130068  
861.000000	-0.059143  
861.500000	-0.080916  
862.000000	-0.092075  
862.500000	-0.084530  
863.000000	-0.015886  
863.500000	-0.019060  
864.000000	-0.019530  
864.500000	0.028045   
865.000000	0.116151   
865.500000	0.218280   
866.000000	0.245810   
866.500000	0.204537   
867.000000	0.098083   
867.500000	0.054613   
868.000000	-0.010530  
868.500000	-0.059939  
869.000000	-0.152409  
869.500000	-0.120666  
870.000000	-0.061749  
870.500000	0.060977   
871.000000	0.084386   
871.500000	0.097886   
872.000000	0.032189   
872.500000	-0.109409  
873.000000	-0.200272  
873.500000	-0.213151  
874.000000	-0.136606  
874.500000	-0.115431  
875.000000	-0.083818  
875.500000	-0.039007  
876.000000	0.050401   
876.500000	0.063719   
877.000000	0.007121   
877.500000	-0.015871  
878.000000	-0.020348  
878.500000	-0.013015  
879.000000	-0.068492  
879.500000	-0.109333  
880.000000	-0.129734  
880.500000	-0.086681  
881.000000	-0.021484  
881.500000	0.041424   
882.000000	0.045212   
882.500000	-0.091795  
883.000000	-0.254257  
883.500000	-0.303742  
884.000000	-0.143151  
884.500000	-0.044348  
885.000000	-0.040424  
885.500000	-0.202984  
886.000000	-0.140000  
886.500000	-0.070575  
887.000000	0.030083   
887.500000	-0.018803  
888.000000	-0.061954  
888.500000	-0.119606  
889.000000	-0.086265  
889.500000	-0.041560  
890.000000	0.000484   
890.500000	-0.021287  
891.000000	-0.101234  
891.500000	-0.103901  
892.000000	-0.092219  
892.500000	-0.152371  
893.000000	-0.198712  
893.500000	-0.164568  
894.000000	0.015621   
894.500000	0.042492   
895.000000	-0.155045  
895.500000	-0.390818  
896.000000	-0.415007  
896.500000	-0.273219  
897.000000	-0.159787  
897.500000	-0.145037  
898.000000	-0.167583  
898.500000	-0.152878  
899.000000	-0.161113  
899.500000	-0.181545  
900.000000	-0.191674  
900.500000	-0.139000  

