PE FL                   SPECTRUM    ASCII       PEDS        1.60        
  -1
S12R#46.SP
24/04/15
16:43:51.00
24/04/15
16:45:16.00
Jan

900.500000
1









LS55
405.00
5.00
5.00
SCAN
1
20
100
100
0
400
0
1
0
1
5
ON
900 405 
1 0 0
#HDR
-1
-1
#GR
NM

0.00002384185791015625
0.0
450.000000
0.500000
902
8
154.879166
-0.414787
#DATA
450.000000	0.264000   
450.500000	-0.114984  
451.000000	-0.310787  
451.500000	-0.222234  
452.000000	-0.062295  
452.500000	0.148931   
453.000000	0.116606   
453.500000	0.019439   
454.000000	-0.203939  
454.500000	-0.265962  
455.000000	-0.255583  
455.500000	-0.112765  
456.000000	-0.038113  
456.500000	0.009734   
457.000000	-0.031128  
457.500000	0.008484   
458.000000	0.054227   
458.500000	0.027098   
459.000000	-0.137219  
459.500000	-0.188560  
460.000000	-0.053628  
460.500000	0.130598   
461.000000	0.146484   
461.500000	0.017287   
462.000000	-0.068287  
462.500000	-0.228636  
463.000000	-0.237401  
463.500000	-0.183772  
464.000000	-0.002515  
464.500000	-0.000439  
465.000000	-0.044545  
465.500000	-0.094507  
466.000000	-0.045060  
466.500000	-0.071530  
467.000000	-0.117704  
467.500000	-0.105234  
468.000000	0.085659   
468.500000	0.186022   
469.000000	0.124242   
469.500000	-0.116462  
470.000000	-0.162606  
470.500000	-0.032068  
471.000000	0.181689   
471.500000	0.042727   
472.000000	-0.234515  
472.500000	-0.414787  
473.000000	-0.255719  
473.500000	-0.084734  
474.000000	-0.034045  
474.500000	-0.147757  
475.000000	-0.189560  
475.500000	-0.209507  
476.000000	-0.239901  
476.500000	0.004810   
477.000000	0.224863   
477.500000	0.256643   
478.000000	-0.138848  
478.500000	-0.325219  
479.000000	-0.233492  
479.500000	0.036848   
480.000000	0.050045   
480.500000	-0.032977  
481.000000	0.023174   
481.500000	0.054106   
482.000000	0.012333   
482.500000	-0.125727  
483.000000	-0.104492  
483.500000	-0.033045  
484.000000	-0.007696  
484.500000	-0.076242  
485.000000	-0.006045  
485.500000	0.108166   
486.000000	0.135734   
486.500000	0.006204   
487.000000	-0.019462  
487.500000	0.050378   
488.000000	0.121651   
488.500000	0.031780   
489.000000	-0.068121  
489.500000	-0.090113  
490.000000	-0.088386  
490.500000	-0.086553  
491.000000	-0.006704  
491.500000	0.145780   
492.000000	0.240439   
492.500000	0.212378   
493.000000	0.127212   
493.500000	0.116522   
494.000000	0.044962   
494.500000	-0.070204  
495.000000	-0.110106  
495.500000	-0.012659  
496.000000	0.035424   
496.500000	0.154303   
497.000000	0.295500   
497.500000	0.470522   
498.000000	0.438340   
498.500000	0.348750   
499.000000	0.367378   
499.500000	0.595492   
500.000000	0.774893   
500.500000	0.766469   
501.000000	0.671939   
501.500000	0.666037   
502.000000	0.843030   
502.500000	1.005204   
503.000000	1.063954   
503.500000	1.019363   
504.000000	1.006795   
504.500000	1.017439   
505.000000	1.117651   
505.500000	1.305696   
506.000000	1.357015   
506.500000	1.236931   
507.000000	1.162196   
507.500000	1.421515   
508.000000	1.739068   
508.500000	2.016143   
509.000000	2.073446   
509.500000	2.240856   
510.000000	2.295545   
510.500000	2.327189   
511.000000	2.227386   
511.500000	2.284189   
512.000000	2.362265   
512.500000	2.537553   
513.000000	2.608795   
513.500000	2.641810   
514.000000	2.757515   
514.500000	2.792219   
515.000000	2.734446   
515.500000	2.687250   
516.000000	2.844583   
516.500000	3.005780   
517.000000	3.046871   
517.500000	2.935128   
518.000000	2.818969   
518.500000	2.752659   
519.000000	2.736106   
519.500000	2.895113   
520.000000	3.196954   
520.500000	3.440696   
521.000000	3.480878   
521.500000	3.351083   
522.000000	3.137712   
522.500000	3.017992   
523.000000	3.158045   
523.500000	3.499719   
524.000000	3.813795   
524.500000	4.040749   
525.000000	4.175984   
525.500000	4.272090   
526.000000	4.324287   
526.500000	4.521015   
527.000000	4.940606   
527.500000	5.094015   
528.000000	4.826651   
528.500000	4.569446   
529.000000	4.623856   
529.500000	5.021727   
530.000000	5.286916   
530.500000	5.820356   
531.000000	6.197250   
531.500000	6.396371   
532.000000	5.998083   
532.500000	5.888924   
533.000000	6.177916   
533.500000	6.783280   
534.000000	7.021295   
534.500000	7.098000   
535.000000	7.376121   
535.500000	7.969969   
536.000000	8.376242   
536.500000	8.586818   
537.000000	8.720000   
537.500000	9.330931   
538.000000	10.134318  
538.500000	10.951515  
539.000000	11.531704  
539.500000	12.027492  
540.000000	12.645136  
540.500000	13.210204  
541.000000	13.583628  
541.500000	13.569825  
542.000000	13.626651  
542.500000	13.779696  
543.000000	13.969681  
543.500000	13.566356  
544.000000	12.788378  
544.500000	11.810734  
545.000000	11.190204  
545.500000	10.696000  
546.000000	10.361795  
546.500000	9.834227   
547.000000	9.255189   
547.500000	8.493871   
548.000000	7.767265   
548.500000	7.152083   
549.000000	6.894575   
549.500000	6.943181   
550.000000	6.964530   
550.500000	6.435378   
551.000000	5.596075   
551.500000	4.795242   
552.000000	4.370598   
552.500000	4.027469   
553.000000	3.707477   
553.500000	3.439568   
554.000000	3.288954   
554.500000	3.347734   
555.000000	3.488219   
555.500000	3.594651   
556.000000	3.485280   
556.500000	3.426416   
557.000000	3.454742   
557.500000	3.495371   
558.000000	3.298696   
558.500000	3.051863   
559.000000	2.972189   
559.500000	3.099893   
560.000000	3.142553   
560.500000	3.101939   
561.000000	3.013303   
561.500000	3.028136   
562.000000	2.940462   
562.500000	2.948712   
563.000000	3.061931   
563.500000	3.312045   
564.000000	3.303250   
564.500000	3.165704   
565.000000	2.994704   
565.500000	3.037196   
566.000000	3.092931   
566.500000	3.212606   
567.000000	3.293151   
567.500000	3.349840   
568.000000	3.244060   
568.500000	3.219909   
569.000000	3.293507   
569.500000	3.327454   
570.000000	3.328522   
570.500000	3.287590   
571.000000	3.274310   
571.500000	3.105742   
572.000000	3.085015   
572.500000	3.221674   
573.000000	3.447424   
573.500000	3.452954   
574.000000	3.397446   
574.500000	3.479378   
575.000000	3.515113   
575.500000	3.527431   
576.000000	3.315659   
576.500000	3.188242   
577.000000	3.110583   
577.500000	3.333053   
578.000000	3.423772   
578.500000	3.431492   
579.000000	3.216128   
579.500000	3.042378   
580.000000	2.913886   
580.500000	3.120113   
581.000000	3.420242   
581.500000	3.583651   
582.000000	3.512946   
582.500000	3.408090   
583.000000	3.425446   
583.500000	3.422765   
584.000000	3.455719   
584.500000	3.444075   
585.000000	3.415757   
585.500000	3.295916   
586.000000	3.293257   
586.500000	3.343863   
587.000000	3.489810   
587.500000	3.581507   
588.000000	3.671939   
588.500000	3.557568   
589.000000	3.615977   
589.500000	3.573030   
590.000000	3.684477   
590.500000	3.509636   
591.000000	3.491378   
591.500000	3.341242   
592.000000	3.544196   
592.500000	3.740719   
593.000000	4.244863   
593.500000	4.434363   
594.000000	4.409636   
594.500000	4.183022   
595.000000	4.199363   
595.500000	4.387257   
596.000000	4.835340   
596.500000	5.120204   
597.000000	5.174030   
597.500000	5.006689   
598.000000	5.221893   
598.500000	5.564492   
599.000000	5.778568   
599.500000	5.456765   
600.000000	5.479689   
600.500000	5.736356   
601.000000	6.160863   
601.500000	6.237765   
602.000000	6.580174   
602.500000	6.864257   
603.000000	6.831143   
603.500000	6.224886   
604.000000	5.923151   
604.500000	6.116219   
605.000000	6.699113   
605.500000	7.182734   
606.000000	7.661757   
606.500000	8.229128   
607.000000	8.721537   
607.500000	8.843151   
608.000000	8.755628   
608.500000	8.724227   
609.000000	8.938439   
609.500000	9.420825   
610.000000	10.043045  
610.500000	10.413113  
611.000000	10.720310  
611.500000	10.934212  
612.000000	11.512295  
612.500000	11.957492  
613.000000	12.348287  
613.500000	12.491613  
614.000000	12.981878  
614.500000	13.496568  
615.000000	14.094583  
615.500000	14.496189  
616.000000	15.034416  
616.500000	15.427977  
617.000000	15.672893  
617.500000	15.637333  
618.000000	16.077613  
618.500000	16.909750  
619.000000	18.055727  
619.500000	18.977727  
620.000000	19.851992  
620.500000	20.308492  
621.000000	20.781795  
621.500000	21.186590  
622.000000	22.340787  
622.500000	23.035962  
623.000000	23.657446  
623.500000	24.013121  
624.000000	25.206030  
624.500000	26.191856  
625.000000	27.482590  
625.500000	28.736318  
626.000000	30.259128  
626.500000	31.609280  
627.000000	32.504507  
627.500000	33.417636  
628.000000	34.154166  
628.500000	34.552280  
629.000000	34.859053  
629.500000	35.893151  
630.000000	37.820840  
630.500000	39.719272  
631.000000	40.901628  
631.500000	41.490492  
632.000000	42.706295  
632.500000	44.195575  
633.000000	45.707318  
633.500000	47.166446  
634.000000	48.985378  
634.500000	51.371893  
635.000000	53.032469  
635.500000	54.043553  
636.000000	54.311227  
636.500000	55.871909  
637.000000	58.500393  
637.500000	61.717553  
638.000000	63.406257  
638.500000	63.878931  
639.000000	64.636560  
639.500000	66.993893  
640.000000	70.477174  
640.500000	72.438007  
641.000000	73.062810  
641.500000	74.024454  
642.000000	76.412257  
642.500000	79.064946  
643.000000	80.120909  
643.500000	80.592583  
644.000000	81.668128  
644.500000	84.368696  
645.000000	87.320962  
645.500000	89.853818  
646.000000	91.614265  
646.500000	93.195189  
647.000000	95.265166  
647.500000	97.305022  
648.000000	100.096901 
648.500000	102.717265 
649.000000	105.257772 
649.500000	106.695803 
650.000000	108.291106 
650.500000	110.059060 
651.000000	111.706689 
651.500000	112.619363 
652.000000	114.416121 
652.500000	117.019803 
653.000000	119.221166 
653.500000	120.431159 
654.000000	120.818371 
654.500000	122.427204 
655.000000	124.514189 
655.500000	126.915909 
656.000000	128.159606 
656.500000	129.624643 
657.000000	130.734083 
657.500000	132.974583 
658.000000	133.982727 
658.500000	135.334378 
659.000000	136.065212 
659.500000	137.984810 
660.000000	139.720681 
660.500000	141.842901 
661.000000	142.289530 
661.500000	142.590045 
662.000000	142.806189 
662.500000	144.292090 
663.000000	146.397409 
663.500000	148.851515 
664.000000	150.885765 
664.500000	151.816250 
665.000000	151.974477 
665.500000	152.429863 
666.000000	152.505151 
666.500000	151.863848 
667.000000	151.422174 
667.500000	152.286984 
668.000000	153.413166 
668.500000	153.607227 
669.000000	153.076090 
669.500000	153.329909 
670.000000	154.259431 
670.500000	154.682060 
671.000000	154.879166 
671.500000	154.734507 
672.000000	153.389772 
672.500000	151.446492 
673.000000	150.006856 
673.500000	149.762234 
674.000000	149.416143 
674.500000	148.813446 
675.000000	147.798568 
675.500000	147.223143 
676.000000	146.295515 
676.500000	146.365431 
677.000000	146.800371 
677.500000	146.720500 
678.000000	144.284378 
678.500000	141.185318 
679.000000	138.258098 
679.500000	136.869424 
680.000000	136.216537 
680.500000	136.379833 
681.000000	135.227280 
681.500000	132.537469 
682.000000	128.313954 
682.500000	125.333462 
683.000000	123.504439 
683.500000	122.368446 
684.000000	120.504818 
684.500000	118.193833 
685.000000	115.121257 
685.500000	112.025287 
686.000000	109.421431 
686.500000	107.028371 
687.000000	104.943454 
687.500000	102.916469 
688.000000	101.141151 
688.500000	99.236303  
689.000000	97.249242  
689.500000	95.114386  
690.000000	92.584659  
690.500000	89.830401  
691.000000	87.594083  
691.500000	85.586143  
692.000000	82.871090  
692.500000	79.856446  
693.000000	77.832128  
693.500000	76.563242  
694.000000	75.032871  
694.500000	72.470325  
695.000000	69.382666  
695.500000	66.657037  
696.000000	65.047075  
696.500000	63.549924  
697.000000	61.439734  
697.500000	58.589363  
698.000000	56.721999  
698.500000	55.818310  
699.000000	54.968454  
699.500000	53.230409  
700.000000	51.094568  
700.500000	49.048068  
701.000000	47.281962  
701.500000	46.126659  
702.000000	45.242128  
702.500000	44.252962  
703.000000	42.751537  
703.500000	41.130598  
704.000000	39.775909  
704.500000	38.648924  
705.000000	37.628318  
705.500000	36.459060  
706.000000	35.172651  
706.500000	34.235363  
707.000000	33.474325  
707.500000	33.034954  
708.000000	32.183825  
708.500000	31.047181  
709.000000	30.175863  
709.500000	29.931522  
710.000000	29.506303  
710.500000	28.342500  
711.000000	26.919325  
711.500000	25.822886  
712.000000	25.568098  
712.500000	25.063454  
713.000000	24.667053  
713.500000	24.254037  
714.000000	23.854833  
714.500000	23.241924  
715.000000	22.511696  
715.500000	21.573393  
716.000000	20.665848  
716.500000	20.154196  
717.000000	19.909863  
717.500000	19.513878  
718.000000	18.783098  
718.500000	18.089916  
719.000000	17.786083  
719.500000	17.319719  
720.000000	16.989742  
720.500000	16.965992  
721.000000	16.909106  
721.500000	16.350992  
722.000000	15.555212  
722.500000	14.659598  
723.000000	13.930530  
723.500000	13.325454  
724.000000	13.170825  
724.500000	12.898840  
725.000000	12.435242  
725.500000	11.775295  
726.000000	11.779030  
726.500000	11.980174  
727.000000	12.084575  
727.500000	11.670954  
728.000000	10.813590  
728.500000	10.194401  
729.000000	10.185689  
729.500000	10.504583  
730.000000	10.382992  
730.500000	9.948181   
731.000000	9.510477   
731.500000	9.212424   
732.000000	9.120954   
732.500000	9.228871   
733.000000	9.221356   
733.500000	8.782181   
734.000000	8.385681   
734.500000	8.295022   
735.000000	8.337022   
735.500000	8.140143   
736.000000	7.927257   
736.500000	7.806318   
737.000000	7.812098   
737.500000	7.851022   
738.000000	7.857553   
738.500000	7.854234   
739.000000	7.797174   
739.500000	7.432696   
740.000000	6.711893   
740.500000	6.281386   
741.000000	6.360916   
741.500000	6.607969   
742.000000	6.276257   
742.500000	6.082825   
743.000000	6.187030   
743.500000	6.652356   
744.000000	6.435181   
744.500000	6.119969   
745.000000	5.771856   
745.500000	5.992121   
746.000000	6.053363   
746.500000	6.085818   
747.000000	5.705636   
747.500000	5.260204   
748.000000	4.825757   
748.500000	4.723022   
749.000000	4.989318   
749.500000	5.176719   
750.000000	5.266484   
750.500000	4.864636   
751.000000	4.536545   
751.500000	4.260795   
752.000000	4.409674   
752.500000	4.372909   
753.000000	4.492560   
753.500000	4.624045   
754.000000	4.854818   
754.500000	4.796583   
755.000000	4.568954   
755.500000	4.562166   
756.000000	4.617325   
756.500000	4.662143   
757.000000	4.402136   
757.500000	4.161742   
758.000000	3.831674   
758.500000	3.759219   
759.000000	3.726000   
759.500000	3.794318   
760.000000	3.766613   
760.500000	3.895227   
761.000000	4.147181   
761.500000	4.249416   
762.000000	4.116287   
762.500000	3.812143   
763.000000	3.649545   
763.500000	3.566363   
764.000000	3.580265   
764.500000	3.675492   
765.000000	3.959015   
765.500000	4.286590   
766.000000	4.397598   
766.500000	4.128030   
767.000000	3.551075   
767.500000	3.168924   
768.000000	3.037651   
768.500000	3.196075   
769.000000	3.248227   
769.500000	3.286772   
770.000000	3.314484   
770.500000	3.426507   
771.000000	3.425060   
771.500000	3.285954   
772.000000	3.178500   
772.500000	3.152977   
773.000000	3.161803   
773.500000	3.110272   
774.000000	3.139439   
774.500000	3.194590   
775.000000	3.153469   
775.500000	3.008272   
776.000000	2.946431   
776.500000	2.987833   
777.000000	3.029553   
777.500000	3.011886   
778.000000	3.046863   
778.500000	3.127803   
779.000000	3.217060   
779.500000	3.192696   
780.000000	3.103780   
780.500000	3.046969   
781.000000	3.051522   
781.500000	3.103356   
782.000000	3.092537   
782.500000	3.040219   
783.000000	2.969575   
783.500000	3.016734   
784.000000	3.001613   
784.500000	2.989409   
785.000000	2.876765   
785.500000	2.823000   
786.000000	2.748583   
786.500000	2.746772   
787.000000	2.681772   
787.500000	2.564196   
788.000000	2.411174   
788.500000	2.495068   
789.000000	2.680848   
789.500000	2.816098   
790.000000	2.748689   
790.500000	2.646401   
791.000000	2.494378   
791.500000	2.413621   
792.000000	2.288522   
792.500000	2.186962   
793.000000	2.127333   
793.500000	2.305378   
794.000000	2.395825   
794.500000	2.314553   
795.000000	2.124386   
795.500000	2.168992   
796.000000	2.164977   
796.500000	2.098666   
797.000000	2.047643   
797.500000	2.169174   
798.000000	2.204984   
798.500000	2.018303   
799.000000	1.872795   
799.500000	1.731484   
800.000000	1.750037   
800.500000	1.810446   
801.000000	1.895015   
801.500000	1.815189   
802.000000	1.867477   
802.500000	1.885075   
803.000000	1.837575   
803.500000	1.575015   
804.000000	1.472545   
804.500000	1.567568   
805.000000	1.672696   
805.500000	1.628643   
806.000000	1.633242   
806.500000	1.619371   
807.000000	1.580128   
807.500000	1.526007   
808.000000	1.524810   
808.500000	1.479500   
809.000000	1.531196   
809.500000	1.505257   
810.000000	1.501954   
810.500000	1.278946   
811.000000	1.213303   
811.500000	1.224037   
812.000000	1.292000   
812.500000	1.399871   
813.000000	1.709469   
813.500000	2.086022   
814.000000	2.022515   
814.500000	1.807318   
815.000000	1.553325   
815.500000	1.569272   
816.000000	1.395537   
816.500000	1.352583   
817.000000	1.360401   
817.500000	1.495833   
818.000000	1.536719   
818.500000	1.499409   
819.000000	1.489530   
819.500000	1.526984   
820.000000	1.681560   
820.500000	1.876159   
821.000000	2.046166   
821.500000	1.997628   
822.000000	1.902113   
822.500000	1.959787   
823.000000	2.227159   
823.500000	2.519189   
824.000000	2.535856   
824.500000	2.389750   
825.000000	2.295689   
825.500000	2.399378   
826.000000	2.461916   
826.500000	2.490295   
827.000000	2.286068   
827.500000	2.157409   
828.000000	1.956727   
828.500000	1.740128   
829.000000	1.508916   
829.500000	1.481121   
830.000000	1.545257   
830.500000	1.505348   
831.000000	1.371742   
831.500000	1.276204   
832.000000	1.285674   
832.500000	1.119295   
833.000000	0.855189   
833.500000	0.734863   
834.000000	0.866742   
834.500000	1.090068   
835.000000	1.170659   
835.500000	1.138545   
836.000000	1.117015   
836.500000	1.097984   
837.000000	1.029424   
837.500000	0.938818   
838.000000	0.869015   
838.500000	0.842530   
839.000000	0.817325   
839.500000	0.820136   
840.000000	0.827159   
840.500000	0.820696   
841.000000	0.684462   
841.500000	0.588257   
842.000000	0.544507   
842.500000	0.544977   
843.000000	0.515159   
843.500000	0.482446   
844.000000	0.530848   
844.500000	0.572621   
845.000000	0.570257   
845.500000	0.427060   
846.000000	0.337068   
846.500000	0.302780   
847.000000	0.387272   
847.500000	0.375068   
848.000000	0.298060   
848.500000	0.157946   
849.000000	0.107757   
849.500000	0.106386   
850.000000	0.122719   
850.500000	0.119196   
851.000000	0.174128   
851.500000	0.271590   
852.000000	0.319219   
852.500000	0.196378   
853.000000	0.091469   
853.500000	0.131916   
854.000000	0.298469   
854.500000	0.370674   
855.000000	0.366750   
855.500000	0.229295   
856.000000	0.014666   
856.500000	-0.076022  
857.000000	0.103090   
857.500000	0.363500   
858.000000	0.377416   
858.500000	0.124477   
859.000000	-0.086045  
859.500000	-0.132780  
860.000000	-0.040227  
860.500000	0.063045   
861.000000	0.119560   
861.500000	0.028681   
862.000000	-0.071416  
862.500000	-0.079227  
863.000000	-0.002340  
863.500000	0.038234   
864.000000	0.029583   
864.500000	0.044946   
865.000000	0.072931   
865.500000	0.008749   
866.000000	-0.056810  
866.500000	-0.137787  
867.000000	-0.148833  
867.500000	-0.153439  
868.000000	-0.039507  
868.500000	-0.010189  
869.000000	-0.027340  
869.500000	-0.110477  
870.000000	-0.090136  
870.500000	-0.087590  
871.000000	-0.119401  
871.500000	-0.135924  
872.000000	-0.083878  
872.500000	-0.035325  
873.000000	-0.038151  
873.500000	-0.013204  
874.000000	0.028507   
874.500000	-0.059962  
875.000000	-0.210424  
875.500000	-0.237969  
876.000000	-0.089787  
876.500000	0.001977   
877.000000	-0.031636  
877.500000	-0.063780  
878.000000	-0.076643  
878.500000	-0.090068  
879.000000	-0.132765  
879.500000	-0.110303  
880.000000	-0.156924  
880.500000	-0.210477  
881.000000	-0.204348  
881.500000	-0.134090  
882.000000	-0.109977  
882.500000	-0.185280  
883.000000	-0.198742  
883.500000	-0.150469  
884.000000	-0.072401  
884.500000	-0.024045  
885.000000	0.021734   
885.500000	0.036659   
886.000000	-0.066196  
886.500000	-0.133196  
887.000000	-0.111939  
887.500000	-0.015189  
888.000000	-0.098643  
888.500000	-0.234636  
889.000000	-0.247590  
889.500000	-0.127318  
890.000000	-0.027325  
890.500000	-0.013310  
891.000000	0.016083   
891.500000	0.027431   
892.000000	-0.025500  
892.500000	-0.081946  
893.000000	-0.074515  
893.500000	0.028909   
894.000000	0.054530   
894.500000	0.025689   
895.000000	-0.070363  
895.500000	-0.043121  
896.000000	0.026848   
896.500000	0.117500   
897.000000	0.086121   
897.500000	-0.038946  
898.000000	-0.098113  
898.500000	-0.111515  
899.000000	-0.125083  
899.500000	-0.181454  
900.000000	-0.028689  
900.500000	0.402000   

