PE FL                   SPECTRUM    ASCII       PEDS        1.60        
  -1
S12R#54.SP
24/04/15
16:55:15.00
24/04/15
16:56:41.00
Jan

900.500000
1









LS55
405.00
5.00
5.00
SCAN
1
20
100
100
0
400
0
1
0
1
5
ON
900 405 
1 0 0
#HDR
-1
-1
#GR
NM

0.00002384185791015625
0.0
450.000000
0.500000
902
8
145.077030
-0.534393
#DATA
450.000000	0.034000   
450.500000	-0.038530  
451.000000	-0.288106  
451.500000	-0.534393  
452.000000	-0.532363  
452.500000	-0.249257  
453.000000	0.003409   
453.500000	0.107484   
454.000000	-0.020166  
454.500000	-0.081287  
455.000000	-0.040621  
455.500000	0.044015   
456.000000	-0.040515  
456.500000	-0.197651  
457.000000	-0.248325  
457.500000	-0.193106  
458.000000	-0.045734  
458.500000	0.113416   
459.000000	0.210916   
459.500000	0.093181   
460.000000	-0.094689  
460.500000	-0.164780  
461.000000	-0.047787  
461.500000	0.127553   
462.000000	0.077522   
462.500000	-0.083234  
463.000000	-0.214250  
463.500000	-0.179780  
464.000000	-0.135500  
464.500000	-0.215893  
465.000000	-0.279121  
465.500000	-0.188681  
466.000000	-0.094818  
466.500000	-0.160712  
467.000000	-0.254666  
467.500000	-0.199727  
468.000000	0.055416   
468.500000	0.210340   
469.000000	0.254636   
469.500000	0.114651   
470.000000	-0.017204  
470.500000	-0.303803  
471.000000	-0.375318  
471.500000	-0.337257  
472.000000	-0.100166  
472.500000	-0.120484  
473.000000	-0.123924  
473.500000	-0.054234  
474.000000	0.034515   
474.500000	-0.109871  
475.000000	-0.295007  
475.500000	-0.280886  
476.000000	-0.119719  
476.500000	-0.063765  
477.000000	-0.187090  
477.500000	-0.288401  
478.000000	-0.292772  
478.500000	-0.222325  
479.000000	-0.146787  
479.500000	-0.066212  
480.000000	-0.022212  
480.500000	0.014431   
481.000000	0.032515   
481.500000	0.113378   
482.000000	0.172363   
482.500000	0.168068   
483.000000	0.110265   
483.500000	0.099469   
484.000000	-0.046909  
484.500000	-0.211984  
485.000000	-0.342621  
485.500000	-0.230613  
486.000000	-0.106818  
486.500000	0.031159   
487.000000	0.006000   
487.500000	-0.008409  
488.000000	-0.098159  
488.500000	-0.197196  
489.000000	-0.248787  
489.500000	-0.183477  
490.000000	-0.105537  
490.500000	0.050734   
491.000000	0.223803   
491.500000	0.338909   
492.000000	0.176053   
492.500000	-0.026613  
493.000000	-0.147000  
493.500000	-0.054719  
494.000000	-0.026409  
494.500000	0.119340   
495.000000	0.311045   
495.500000	0.504871   
496.000000	0.616424   
496.500000	0.715500   
497.000000	0.740401   
497.500000	0.657810   
498.000000	0.602189   
498.500000	0.685712   
499.000000	0.778143   
499.500000	0.844386   
500.000000	0.830446   
500.500000	0.874363   
501.000000	0.895356   
501.500000	0.900257   
502.000000	0.845659   
502.500000	0.851151   
503.000000	0.878613   
503.500000	0.908878   
504.000000	0.883280   
504.500000	0.766772   
505.000000	0.786863   
505.500000	0.960795   
506.000000	1.166681   
506.500000	1.237810   
507.000000	1.337090   
507.500000	1.688530   
508.000000	2.075840   
508.500000	2.314022   
509.000000	2.392901   
509.500000	2.479340   
510.000000	2.392871   
510.500000	2.252363   
511.000000	2.217886   
511.500000	2.376371   
512.000000	2.451083   
512.500000	2.428234   
513.000000	2.383090   
513.500000	2.413878   
514.000000	2.570424   
514.500000	2.841636   
515.000000	2.886303   
515.500000	2.710409   
516.000000	2.481681   
516.500000	2.620727   
517.000000	2.826666   
517.500000	2.997863   
518.000000	2.973772   
518.500000	3.055727   
519.000000	3.120280   
519.500000	3.249719   
520.000000	3.252984   
520.500000	3.283871   
521.000000	3.279848   
521.500000	3.369727   
522.000000	3.443189   
522.500000	3.440515   
523.000000	3.311469   
523.500000	3.171371   
524.000000	3.113674   
524.500000	3.157643   
525.000000	3.384537   
525.500000	3.692803   
526.000000	4.040818   
526.500000	4.168507   
527.000000	4.095530   
527.500000	3.915204   
528.000000	3.982250   
528.500000	4.304106   
529.000000	4.827151   
529.500000	5.133712   
530.000000	5.230750   
530.500000	5.168772   
531.000000	5.185727   
531.500000	5.256287   
532.000000	5.540431   
532.500000	5.787833   
533.000000	6.102128   
533.500000	6.594916   
534.000000	7.261212   
534.500000	8.214181   
535.000000	8.922537   
535.500000	9.194128   
536.000000	8.622590   
536.500000	8.247742   
537.000000	8.422749   
537.500000	9.496939   
538.000000	10.441515  
538.500000	11.255303  
539.000000	11.646530  
539.500000	11.915075  
540.000000	12.015045  
540.500000	12.694310  
541.000000	13.651537  
541.500000	14.360734  
542.000000	14.256363  
542.500000	13.692318  
543.000000	12.944613  
543.500000	12.381856  
544.000000	11.980424  
544.500000	11.467250  
545.000000	10.941628  
545.500000	10.461977  
546.000000	10.565719  
546.500000	10.431537  
547.000000	9.911333   
547.500000	9.074795   
548.000000	8.497250   
548.500000	7.733098   
549.000000	7.056484   
549.500000	6.596212   
550.000000	6.261477   
550.500000	5.653659   
551.000000	4.869727   
551.500000	4.536454   
552.000000	4.255469   
552.500000	3.950378   
553.000000	3.518469   
553.500000	3.418954   
554.000000	3.318803   
554.500000	3.417393   
555.000000	3.526234   
555.500000	3.735462   
556.000000	3.669818   
556.500000	3.480007   
557.000000	3.233045   
557.500000	3.063575   
558.000000	3.174181   
558.500000	3.385196   
559.000000	3.447030   
559.500000	3.239424   
560.000000	3.092878   
560.500000	3.031371   
561.000000	3.045393   
561.500000	2.966893   
562.000000	3.117575   
562.500000	3.304083   
563.000000	3.357636   
563.500000	3.249068   
564.000000	3.299363   
564.500000	3.354696   
565.000000	3.304545   
565.500000	3.067159   
566.000000	3.004401   
566.500000	3.165757   
567.000000	3.399962   
567.500000	3.480068   
568.000000	3.477750   
568.500000	3.396977   
569.000000	3.345401   
569.500000	3.205916   
570.000000	3.172242   
570.500000	3.066151   
571.000000	3.084037   
571.500000	3.057401   
572.000000	3.252606   
572.500000	3.293060   
573.000000	3.352469   
573.500000	3.227303   
574.000000	3.149818   
574.500000	3.189863   
575.000000	3.337545   
575.500000	3.576128   
576.000000	3.511219   
576.500000	3.364833   
577.000000	3.141492   
577.500000	3.204886   
578.000000	3.207757   
578.500000	3.341719   
579.000000	3.310530   
579.500000	3.227704   
580.000000	3.312166   
580.500000	3.406015   
581.000000	3.550795   
581.500000	3.491863   
582.000000	3.548386   
582.500000	3.557939   
583.000000	3.713727   
583.500000	3.678901   
584.000000	3.627621   
584.500000	3.363113   
585.000000	3.319848   
585.500000	3.429371   
586.000000	3.577136   
586.500000	3.613924   
587.000000	3.839969   
587.500000	4.031310   
588.000000	4.007477   
588.500000	3.767242   
589.000000	3.674651   
589.500000	3.825727   
590.000000	4.127575   
590.500000	4.243946   
591.000000	4.097272   
591.500000	3.986280   
592.000000	4.061454   
592.500000	4.467030   
593.000000	4.610606   
593.500000	4.684265   
594.000000	4.719234   
594.500000	5.135462   
595.000000	5.398007   
595.500000	5.476015   
596.000000	5.214060   
596.500000	4.930265   
597.000000	4.864621   
597.500000	5.151916   
598.000000	5.503068   
598.500000	5.836280   
599.000000	6.093727   
599.500000	6.320015   
600.000000	6.199159   
600.500000	5.954356   
601.000000	5.951924   
601.500000	6.427189   
602.000000	6.912757   
602.500000	7.104106   
603.000000	7.139825   
603.500000	6.964810   
604.000000	6.990553   
604.500000	7.260303   
605.000000	7.797409   
605.500000	8.274522   
606.000000	8.639643   
606.500000	9.096083   
607.000000	9.479037   
607.500000	9.406530   
608.000000	9.028136   
608.500000	8.897560   
609.000000	9.389795   
609.500000	9.958636   
610.000000	10.491287  
610.500000	10.734348  
611.000000	11.169469  
611.500000	11.471833  
612.000000	11.749628  
612.500000	11.847689  
613.000000	12.058795  
613.500000	12.526780  
614.000000	13.163818  
614.500000	13.770924  
615.000000	14.111363  
615.500000	14.420909  
616.000000	14.968507  
616.500000	15.798333  
617.000000	16.788696  
617.500000	17.623931  
618.000000	18.291204  
618.500000	18.769568  
619.000000	19.275886  
619.500000	19.647833  
620.000000	20.176363  
620.500000	20.558492  
621.000000	20.809242  
621.500000	21.018212  
622.000000	22.017825  
622.500000	23.614878  
623.000000	25.076825  
623.500000	25.790772  
624.000000	26.262106  
624.500000	26.984318  
625.000000	28.059787  
625.500000	29.558000  
626.000000	31.431484  
626.500000	32.401787  
627.000000	32.750393  
627.500000	32.868522  
628.000000	33.792803  
628.500000	35.096613  
629.000000	36.958560  
629.500000	38.947151  
630.000000	41.016939  
630.500000	41.796856  
631.000000	42.281954  
631.500000	43.276606  
632.000000	44.983037  
632.500000	46.514984  
633.000000	47.566886  
633.500000	48.526333  
634.000000	50.294924  
634.500000	52.301636  
635.000000	53.935909  
635.500000	55.489136  
636.000000	57.402333  
636.500000	58.799681  
637.000000	59.780212  
637.500000	60.362856  
638.000000	62.124886  
638.500000	64.161833  
639.000000	66.290810  
639.500000	68.408310  
640.000000	71.363530  
640.500000	73.776462  
641.000000	74.990613  
641.500000	75.709212  
642.000000	77.216742  
642.500000	79.943416  
643.000000	82.631984  
643.500000	84.692939  
644.000000	85.244060  
644.500000	85.971386  
645.000000	87.133401  
645.500000	89.737227  
646.000000	92.156984  
646.500000	94.283757  
647.000000	95.254431  
647.500000	96.610098  
648.000000	98.774659  
648.500000	101.921386 
649.000000	104.413204 
649.500000	105.243840 
650.000000	105.569598 
650.500000	107.057878 
651.000000	109.494568 
651.500000	111.808340 
652.000000	113.875537 
652.500000	116.273318 
653.000000	118.256121 
653.500000	119.005340 
654.000000	118.830803 
654.500000	118.951825 
655.000000	119.792598 
655.500000	121.142909 
656.000000	123.992075 
656.500000	127.217484 
657.000000	129.896159 
657.500000	130.623424 
658.000000	131.139295 
658.500000	131.401030 
659.000000	131.981507 
659.500000	132.963621 
660.000000	134.348113 
660.500000	137.479787 
661.000000	139.434257 
661.500000	140.545060 
662.000000	139.985325 
662.500000	140.417651 
663.000000	140.956401 
663.500000	141.653227 
664.000000	142.506068 
664.500000	143.595969 
665.000000	145.077030 
665.500000	144.528257 
666.000000	143.699863 
666.500000	142.838242 
667.000000	143.836113 
667.500000	144.643590 
668.000000	144.363454 
668.500000	143.070075 
669.000000	142.441492 
669.500000	142.250984 
670.000000	142.362886 
670.500000	142.523348 
671.000000	143.434969 
671.500000	143.517901 
672.000000	142.521681 
672.500000	140.989128 
673.000000	140.211174 
673.500000	140.039227 
674.000000	139.762674 
674.500000	139.723007 
675.000000	138.811522 
675.500000	138.012606 
676.000000	135.907613 
676.500000	134.696303 
677.000000	132.752492 
677.500000	130.859727 
678.000000	128.421280 
678.500000	127.123954 
679.000000	125.433409 
679.500000	123.513340 
680.000000	121.777810 
680.500000	120.930666 
681.000000	119.458272 
681.500000	116.381416 
682.000000	112.793280 
682.500000	111.185560 
683.000000	110.874583 
683.500000	110.165590 
684.000000	108.212181 
684.500000	105.027340 
685.000000	101.240121 
685.500000	97.960621  
686.000000	96.168954  
686.500000	95.215143  
687.000000	93.833719  
687.500000	91.627901  
688.000000	89.309969  
688.500000	87.049386  
689.000000	84.582477  
689.500000	82.443780  
690.000000	80.260583  
690.500000	77.778060  
691.000000	75.263780  
691.500000	73.259045  
692.000000	71.542795  
692.500000	69.762303  
693.000000	67.498454  
693.500000	65.256090  
694.000000	63.119628  
694.500000	61.168560  
695.000000	59.138242  
695.500000	57.439909  
696.000000	56.417628  
696.500000	55.816053  
697.000000	54.869249  
697.500000	52.895734  
698.000000	50.228113  
698.500000	47.906106  
699.000000	46.652681  
699.500000	46.094590  
700.000000	45.049734  
700.500000	43.556234  
701.000000	42.224136  
701.500000	41.234060  
702.000000	40.199977  
702.500000	38.298787  
703.000000	36.723143  
703.500000	35.756318  
704.000000	35.613022  
704.500000	35.119439  
705.000000	34.334083  
705.500000	33.078181  
706.000000	31.861492  
706.500000	30.643954  
707.000000	29.686712  
707.500000	29.126719  
708.000000	28.384780  
708.500000	27.522143  
709.000000	26.328045  
709.500000	25.287409  
710.000000	24.488886  
710.500000	24.317439  
711.000000	23.898674  
711.500000	23.350787  
712.000000	22.394204  
712.500000	21.749787  
713.000000	20.870348  
713.500000	20.092075  
714.000000	19.052545  
714.500000	18.726515  
715.000000	18.572871  
715.500000	18.493287  
716.000000	18.079825  
716.500000	17.969348  
717.000000	17.650181  
717.500000	17.044128  
718.000000	16.233280  
718.500000	15.832818  
719.000000	15.839886  
719.500000	15.985424  
720.000000	15.845022  
720.500000	15.225393  
721.000000	14.283469  
721.500000	13.709136  
722.000000	13.500075  
722.500000	13.282681  
723.000000	12.806083  
723.500000	12.452265  
724.000000	12.203295  
724.500000	12.060363  
725.000000	12.086477  
725.500000	12.031113  
726.000000	11.568053  
726.500000	10.551446  
727.000000	9.894628   
727.500000	9.993818   
728.000000	10.344931  
728.500000	10.246416  
729.000000	9.758553   
729.500000	9.360727   
730.000000	9.058484   
730.500000	9.012219   
731.000000	8.957962   
731.500000	9.004833   
732.000000	8.703212   
732.500000	8.418545   
733.000000	8.339492   
733.500000	8.592446   
734.000000	8.599098   
734.500000	8.475068   
735.000000	8.168083   
735.500000	7.970659   
736.000000	7.794015   
736.500000	7.521560   
737.000000	7.071204   
737.500000	6.740696   
738.000000	6.619439   
738.500000	6.645515   
739.000000	6.769015   
739.500000	6.634106   
740.000000	6.305515   
740.500000	6.099765   
741.000000	6.125757   
741.500000	6.226568   
742.000000	6.068174   
742.500000	5.616840   
743.000000	5.242469   
743.500000	5.170939   
744.000000	5.403272   
744.500000	5.708666   
745.000000	5.955689   
745.500000	5.923696   
746.000000	5.766242   
746.500000	5.265386   
747.000000	4.803356   
747.500000	4.649022   
748.000000	4.857272   
748.500000	5.054939   
749.000000	5.061477   
749.500000	4.841045   
750.000000	4.806106   
750.500000	4.740174   
751.000000	4.735507   
751.500000	4.498984   
752.000000	4.306204   
752.500000	4.093060   
753.000000	3.894340   
753.500000	3.673878   
754.000000	3.698727   
754.500000	3.921568   
755.000000	3.992325   
755.500000	3.944568   
756.000000	3.858393   
756.500000	3.805636   
757.000000	3.632439   
757.500000	3.421340   
758.000000	3.338969   
758.500000	3.606840   
759.000000	3.909878   
759.500000	4.072469   
760.000000	4.084848   
760.500000	4.041727   
761.000000	3.879454   
761.500000	3.660121   
762.000000	3.415553   
762.500000	3.261174   
763.000000	3.234984   
763.500000	3.201030   
764.000000	3.249045   
764.500000	3.342477   
765.000000	3.462734   
765.500000	3.631121   
766.000000	3.619318   
766.500000	3.392772   
767.000000	3.181462   
767.500000	3.188909   
768.000000	3.273159   
768.500000	3.230916   
769.000000	3.141356   
769.500000	3.210356   
770.000000	3.369651   
770.500000	3.346553   
771.000000	3.151371   
771.500000	2.949484   
772.000000	2.875204   
772.500000	2.920757   
773.000000	3.011628   
773.500000	3.095878   
774.000000	2.885363   
774.500000	2.602439   
775.000000	2.472651   
775.500000	2.809371   
776.000000	3.049666   
776.500000	3.131098   
777.000000	2.961757   
777.500000	2.959136   
778.000000	2.924878   
778.500000	2.965333   
779.000000	2.968742   
779.500000	2.916492   
780.000000	2.729787   
780.500000	2.603280   
781.000000	2.666401   
781.500000	2.732954   
782.000000	2.731613   
782.500000	2.730477   
783.000000	2.880106   
783.500000	2.948060   
784.000000	2.911878   
784.500000	2.633909   
785.000000	2.459772   
785.500000	2.413704   
786.000000	2.544643   
786.500000	2.637439   
787.000000	2.735924   
787.500000	2.785386   
788.000000	2.842371   
788.500000	2.849083   
789.000000	2.813083   
789.500000	2.736174   
790.000000	2.614916   
790.500000	2.526121   
791.000000	2.596212   
791.500000	2.705560   
792.000000	2.787128   
792.500000	2.653696   
793.000000	2.491484   
793.500000	2.436681   
794.000000	2.650522   
794.500000	2.873462   
795.000000	2.845500   
795.500000	2.643924   
796.000000	2.347280   
796.500000	2.224424   
797.000000	2.064159   
797.500000	2.035803   
798.000000	2.003128   
798.500000	2.260053   
799.000000	2.304939   
799.500000	2.246303   
800.000000	2.051295   
800.500000	2.169409   
801.000000	2.331000   
801.500000	2.218371   
802.000000	1.752818   
802.500000	1.509931   
803.000000	1.699750   
803.500000	1.949045   
804.000000	1.992409   
804.500000	1.900977   
805.000000	2.059424   
805.500000	2.171575   
806.000000	2.133833   
806.500000	1.937969   
807.000000	1.845401   
807.500000	1.763333   
808.000000	1.785030   
808.500000	1.838553   
809.000000	1.851325   
809.500000	1.813689   
810.000000	1.719954   
810.500000	1.743575   
811.000000	1.783984   
811.500000	1.825015   
812.000000	1.753916   
812.500000	1.460022   
813.000000	1.209946   
813.500000	1.231022   
814.000000	1.451446   
814.500000	1.612681   
815.000000	1.643106   
815.500000	1.596159   
816.000000	1.506583   
816.500000	1.446704   
817.000000	1.459984   
817.500000	1.530984   
818.000000	1.531265   
818.500000	1.486234   
819.000000	1.518424   
819.500000	1.555136   
820.000000	1.548340   
820.500000	1.610901   
821.000000	1.737409   
821.500000	1.934075   
822.000000	2.045083   
822.500000	2.155416   
823.000000	2.276257   
823.500000	2.464946   
824.000000	2.632727   
824.500000	2.669113   
825.000000	2.601522   
825.500000	2.365166   
826.000000	2.249848   
826.500000	2.185909   
827.000000	2.271037   
827.500000	2.093750   
828.000000	1.823303   
828.500000	1.488780   
829.000000	1.442121   
829.500000	1.424636   
830.000000	1.595507   
830.500000	1.605696   
831.000000	1.536219   
831.500000	1.334333   
832.000000	1.361318   
832.500000	1.470348   
833.000000	1.486651   
833.500000	1.295174   
834.000000	1.118068   
834.500000	1.051348   
835.000000	1.019363   
835.500000	1.047818   
836.000000	1.022886   
836.500000	1.009484   
837.000000	0.972159   
837.500000	0.989840   
838.000000	1.014295   
838.500000	1.091939   
839.000000	1.125310   
839.500000	1.059984   
840.000000	0.896401   
840.500000	0.769022   
841.000000	0.742606   
841.500000	0.706742   
842.000000	0.687174   
842.500000	0.597318   
843.000000	0.429977   
843.500000	0.244613   
844.000000	0.310719   
844.500000	0.418954   
845.000000	0.478356   
845.500000	0.405318   
846.000000	0.420333   
846.500000	0.437060   
847.000000	0.418113   
847.500000	0.433098   
848.000000	0.588795   
848.500000	0.630598   
849.000000	0.376318   
849.500000	-0.023681  
850.000000	-0.195477  
850.500000	-0.007484  
851.000000	0.261863   
851.500000	0.321924   
852.000000	0.184234   
852.500000	0.054689   
853.000000	0.087999   
853.500000	0.177166   
854.000000	0.188553   
854.500000	0.004348   
855.000000	-0.133651  
855.500000	-0.083159  
856.000000	0.133242   
856.500000	0.232651   
857.000000	0.186795   
857.500000	0.133227   
858.000000	0.116666   
858.500000	0.133060   
859.000000	0.038212   
859.500000	-0.113924  
860.000000	-0.253075  
860.500000	-0.190068  
861.000000	0.021818   
861.500000	0.288318   
862.000000	0.325045   
862.500000	0.250333   
863.000000	0.109136   
863.500000	0.098393   
864.000000	0.066174   
864.500000	0.111704   
865.000000	0.109234   
865.500000	0.157734   
866.000000	0.094462   
866.500000	0.052484   
867.000000	0.128568   
867.500000	0.240659   
868.000000	0.210696   
868.500000	0.036931   
869.000000	-0.083378  
869.500000	-0.078007  
870.000000	0.097234   
870.500000	0.173575   
871.000000	0.147242   
871.500000	-0.070893  
872.000000	-0.234946  
872.500000	-0.262545  
873.000000	-0.177113  
873.500000	-0.172674  
874.000000	-0.191121  
874.500000	-0.175825  
875.000000	-0.088590  
875.500000	0.003636   
876.000000	0.047984   
876.500000	0.003909   
877.000000	-0.090174  
877.500000	-0.195598  
878.000000	-0.206045  
878.500000	-0.147234  
879.000000	-0.101318  
879.500000	-0.069613  
880.000000	-0.122090  
880.500000	-0.182734  
881.000000	-0.251083  
881.500000	-0.167060  
882.000000	-0.127977  
882.500000	-0.083303  
883.000000	-0.119045  
883.500000	-0.034643  
884.000000	0.081227   
884.500000	0.118060   
885.000000	0.007871   
885.500000	-0.127901  
886.000000	-0.169825  
886.500000	-0.130545  
887.000000	-0.072348  
887.500000	-0.120098  
888.000000	-0.055946  
888.500000	0.023272   
889.000000	0.082393   
889.500000	-0.085553  
890.000000	-0.290265  
890.500000	-0.317795  
891.000000	-0.121015  
891.500000	-0.010583  
892.000000	0.012166   
892.500000	-0.035045  
893.000000	-0.040348  
893.500000	-0.076954  
894.000000	-0.090863  
894.500000	-0.079219  
895.000000	-0.005734  
895.500000	0.008954   
896.000000	0.082166   
896.500000	0.078295   
897.000000	0.012212   
897.500000	-0.135083  
898.000000	-0.207712  
898.500000	-0.213037  
899.000000	-0.130053  
899.500000	-0.074833  
900.000000	-0.026181  
900.500000	-0.033000  

