PE FL                   SPECTRUM    ASCII       PEDS        1.60        
  -1
S12R#05.SP
24/04/15
15:45:23.00
24/04/15
15:46:48.00
Jan

900.500000
1









LS55
405.00
5.00
5.00
SCAN
1
20
100
100
0
400
0
1
0
1
5
ON
900 405 
1 0 0
#HDR
-1
-1
#GR
NM

0.00002384185791015625
0.0
450.000000
0.500000
902
8
211.145674
-0.911000
#DATA
450.000000	0.330000   
450.500000	0.237659   
451.000000	0.122992   
451.500000	0.029113   
452.000000	-0.035151  
452.500000	0.048007   
453.000000	0.185030   
453.500000	0.176825   
454.000000	-0.060242  
454.500000	-0.317045  
455.000000	-0.345537  
455.500000	-0.095984  
456.000000	0.172598   
456.500000	0.229606   
457.000000	0.089333   
457.500000	-0.008666  
458.000000	0.010257   
458.500000	0.090303   
459.000000	0.133757   
459.500000	0.154106   
460.000000	0.230636   
460.500000	0.213409   
461.000000	0.121151   
461.500000	0.012560   
462.000000	0.128621   
462.500000	0.236265   
463.000000	0.212659   
463.500000	0.052045   
464.000000	-0.031818  
464.500000	0.012780   
465.000000	0.013681   
465.500000	0.005143   
466.000000	-0.153901  
466.500000	-0.237992  
467.000000	-0.275719  
467.500000	-0.061030  
468.000000	-0.020893  
468.500000	-0.000106  
469.000000	-0.076560  
469.500000	0.026212   
470.000000	0.056962   
470.500000	0.082946   
471.000000	0.048856   
471.500000	0.051757   
472.000000	0.033575   
472.500000	0.026007   
473.000000	0.036560   
473.500000	-0.003840  
474.000000	-0.117219  
474.500000	-0.245946  
475.000000	-0.245939  
475.500000	-0.098348  
476.000000	0.082825   
476.500000	0.092037   
477.000000	0.007643   
477.500000	-0.123659  
478.000000	-0.148454  
478.500000	-0.221242  
479.000000	-0.248446  
479.500000	-0.244106  
480.000000	-0.154174  
480.500000	-0.014606  
481.000000	0.067249   
481.500000	0.060606   
482.000000	0.040984   
482.500000	0.102537   
483.000000	0.165075   
483.500000	0.017151   
484.000000	-0.211522  
484.500000	-0.368840  
485.000000	-0.158848  
485.500000	0.048022   
486.000000	0.139416   
486.500000	0.002143   
487.000000	0.013515   
487.500000	0.073212   
488.000000	0.063181   
488.500000	-0.094371  
489.000000	-0.244000  
489.500000	-0.185863  
490.000000	-0.019681  
490.500000	0.183636   
491.000000	0.226219   
491.500000	0.206886   
492.000000	0.150227   
492.500000	0.116962   
493.000000	-0.002674  
493.500000	-0.021287  
494.000000	0.159545   
494.500000	0.321174   
495.000000	0.331803   
495.500000	0.276856   
496.000000	0.351431   
496.500000	0.333742   
497.000000	0.228742   
497.500000	0.152371   
498.000000	0.323189   
498.500000	0.544431   
499.000000	0.593462   
499.500000	0.603204   
500.000000	0.529401   
500.500000	0.588962   
501.000000	0.613583   
501.500000	0.810477   
502.000000	0.946560   
502.500000	1.021863   
503.000000	0.897022   
503.500000	0.792196   
504.000000	0.832068   
504.500000	1.012265   
505.000000	1.320181   
505.500000	1.425310   
506.000000	1.232318   
506.500000	1.067977   
507.000000	1.328022   
507.500000	1.838575   
508.000000	1.973954   
508.500000	1.849909   
509.000000	1.953704   
509.500000	2.492083   
510.000000	2.803893   
510.500000	2.762098   
511.000000	2.581083   
511.500000	2.571143   
512.000000	2.576583   
512.500000	2.541515   
513.000000	2.569939   
513.500000	2.782500   
514.000000	2.993196   
514.500000	2.942212   
515.000000	2.800409   
515.500000	2.808189   
516.000000	3.027409   
516.500000	3.104666   
517.000000	3.022818   
517.500000	2.931962   
518.000000	3.039719   
518.500000	3.254969   
519.000000	3.509196   
519.500000	3.676833   
520.000000	3.666651   
520.500000	3.619848   
521.000000	3.618719   
521.500000	3.658060   
522.000000	3.508651   
522.500000	3.398287   
523.000000	3.276946   
523.500000	3.289348   
524.000000	3.233810   
524.500000	3.538575   
525.000000	3.923795   
525.500000	4.170871   
526.000000	3.970636   
526.500000	3.947462   
527.000000	4.020250   
527.500000	4.066522   
528.000000	4.092530   
528.500000	4.642931   
529.000000	5.319272   
529.500000	5.503340   
530.000000	5.222401   
530.500000	5.100053   
531.000000	5.326856   
531.500000	5.693825   
532.000000	6.249553   
532.500000	6.769204   
533.000000	7.043045   
533.500000	6.968780   
534.000000	6.985083   
534.500000	7.308954   
535.000000	7.936401   
535.500000	8.548295   
536.000000	8.988568   
536.500000	9.338787   
537.000000	9.717636   
537.500000	10.230886  
538.000000	10.761257  
538.500000	11.212401  
539.000000	11.686712  
539.500000	12.318340  
540.000000	13.033772  
540.500000	13.610810  
541.000000	13.868575  
541.500000	13.833090  
542.000000	13.608121  
542.500000	13.670196  
543.000000	13.931984  
543.500000	14.049431  
544.000000	13.492416  
544.500000	12.750583  
545.000000	12.118590  
545.500000	11.615992  
546.000000	10.785522  
546.500000	10.038030  
547.000000	9.593340   
547.500000	9.353643   
548.000000	9.032840   
548.500000	8.393560   
549.000000	7.595962   
549.500000	6.772128   
550.000000	6.050787   
550.500000	5.512856   
551.000000	5.179992   
551.500000	4.903810   
552.000000	4.445098   
552.500000	4.110939   
553.000000	3.996090   
553.500000	4.135848   
554.000000	3.868272   
554.500000	3.413424   
555.000000	3.094439   
555.500000	3.126212   
556.000000	3.328863   
556.500000	3.362272   
557.000000	3.297128   
557.500000	3.156090   
558.000000	3.227227   
558.500000	3.319530   
559.000000	3.362098   
559.500000	3.112431   
560.000000	2.985583   
560.500000	3.050643   
561.000000	3.210507   
561.500000	3.164575   
562.000000	3.070303   
562.500000	3.135969   
563.000000	3.312643   
563.500000	3.426484   
564.000000	3.480409   
564.500000	3.535037   
565.000000	3.609507   
565.500000	3.539227   
566.000000	3.417636   
566.500000	3.365257   
567.000000	3.466227   
567.500000	3.546636   
568.000000	3.495060   
568.500000	3.363492   
569.000000	3.337666   
569.500000	3.444856   
570.000000	3.423484   
570.500000	3.386295   
571.000000	3.303689   
571.500000	3.325916   
572.000000	3.360886   
572.500000	3.389848   
573.000000	3.295045   
573.500000	3.124575   
574.000000	3.018931   
574.500000	3.123250   
575.000000	3.278712   
575.500000	3.255431   
576.000000	3.083053   
576.500000	3.001378   
577.000000	3.159659   
577.500000	3.336659   
578.000000	3.369181   
578.500000	3.138151   
579.000000	2.950181   
579.500000	2.943272   
580.000000	3.208530   
580.500000	3.440946   
581.000000	3.480303   
581.500000	3.370030   
582.000000	3.416363   
582.500000	3.609242   
583.000000	3.600037   
583.500000	3.336643   
584.000000	3.144053   
584.500000	3.202871   
585.000000	3.369871   
585.500000	3.489151   
586.000000	3.504492   
586.500000	3.473772   
587.000000	3.458780   
587.500000	3.612106   
588.000000	3.760909   
588.500000	3.832030   
589.000000	3.884765   
589.500000	4.019356   
590.000000	3.983098   
590.500000	3.815356   
591.000000	3.853174   
591.500000	4.153893   
592.000000	4.300780   
592.500000	3.977492   
593.000000	3.574984   
593.500000	3.453431   
594.000000	3.635833   
594.500000	3.890310   
595.000000	4.224530   
595.500000	4.515303   
596.000000	4.786924   
596.500000	4.700590   
597.000000	4.479712   
597.500000	4.242037   
598.000000	4.433196   
598.500000	4.469371   
599.000000	4.476174   
599.500000	4.507310   
600.000000	4.909242   
600.500000	5.366022   
601.000000	5.625643   
601.500000	5.694750   
602.000000	5.700333   
602.500000	5.841469   
603.000000	5.922787   
603.500000	6.045416   
604.000000	6.091196   
604.500000	6.126537   
605.000000	6.252886   
605.500000	6.278325   
606.000000	6.293204   
606.500000	6.430787   
607.000000	6.912840   
607.500000	7.398651   
608.000000	7.712181   
608.500000	7.722128   
609.000000	7.732007   
609.500000	7.924871   
610.000000	8.379795   
610.500000	8.635310   
611.000000	8.623909   
611.500000	8.320583   
612.000000	8.537492   
612.500000	9.293340   
613.000000	10.055939  
613.500000	10.114946  
614.000000	10.116742  
614.500000	10.543204  
615.000000	11.331590  
615.500000	11.684022  
616.000000	11.739242  
616.500000	12.067431  
617.000000	12.986545  
617.500000	13.793840  
618.000000	14.102378  
618.500000	13.946325  
619.000000	13.951575  
619.500000	14.405969  
620.000000	15.246575  
620.500000	16.221090  
621.000000	17.174272  
621.500000	18.017075  
622.000000	18.425340  
622.500000	18.381484  
623.000000	18.610962  
623.500000	19.459272  
624.000000	20.152318  
624.500000	20.395613  
625.000000	20.656636  
625.500000	21.687257  
626.000000	22.817113  
626.500000	23.674143  
627.000000	24.510250  
627.500000	26.076901  
628.000000	27.328931  
628.500000	28.289340  
629.000000	29.200431  
629.500000	30.392575  
630.000000	31.659856  
630.500000	32.423174  
631.000000	32.670613  
631.500000	32.942901  
632.000000	34.197310  
632.500000	36.102848  
633.000000	38.289742  
633.500000	39.988393  
634.000000	41.233242  
634.500000	42.027310  
635.000000	42.961696  
635.500000	44.617939  
636.000000	46.653583  
636.500000	48.333068  
637.000000	49.625477  
637.500000	51.580477  
638.000000	53.690621  
638.500000	56.183462  
639.000000	58.223075  
639.500000	59.890136  
640.000000	60.382803  
640.500000	61.088545  
641.000000	62.635689  
641.500000	65.616886  
642.000000	68.485954  
642.500000	71.057727  
643.000000	73.065924  
643.500000	75.299227  
644.000000	77.550045  
644.500000	79.804515  
645.000000	81.195242  
645.500000	82.991484  
646.000000	84.963378  
646.500000	87.717295  
647.000000	90.018212  
647.500000	92.523462  
648.000000	95.178462  
648.500000	98.792242  
649.000000	102.342416 
649.500000	104.720409 
650.000000	106.283393 
650.500000	106.949136 
651.000000	109.151484 
651.500000	112.347681 
652.000000	116.771833 
652.500000	119.981424 
653.000000	122.406159 
653.500000	124.053015 
654.000000	126.178045 
654.500000	129.134696 
655.000000	131.942386 
655.500000	134.683787 
656.000000	137.540598 
656.500000	141.017787 
657.000000	144.006621 
657.500000	145.279068 
658.000000	146.420606 
658.500000	149.924446 
659.000000	154.731787 
659.500000	157.756537 
660.000000	159.153984 
660.500000	160.739219 
661.000000	161.979227 
661.500000	162.971568 
662.000000	163.995515 
662.500000	167.518954 
663.000000	172.191545 
663.500000	176.293643 
664.000000	178.695583 
664.500000	180.068704 
665.000000	181.522628 
665.500000	183.663878 
666.000000	185.766477 
666.500000	187.468765 
667.000000	189.312742 
667.500000	190.834719 
668.000000	192.353007 
668.500000	192.571712 
669.000000	193.759765 
669.500000	194.884803 
670.000000	196.477674 
670.500000	198.677530 
671.000000	201.644893 
671.500000	203.622772 
672.000000	204.399303 
672.500000	204.513628 
673.000000	205.084310 
673.500000	206.533515 
674.000000	207.259643 
674.500000	208.017356 
675.000000	208.980287 
675.500000	210.150659 
676.000000	210.782310 
676.500000	211.145674 
677.000000	210.182113 
677.500000	209.357696 
678.000000	207.961727 
678.500000	208.155136 
679.000000	208.426840 
679.500000	208.714265 
680.000000	207.839295 
680.500000	207.143363 
681.000000	206.334356 
681.500000	205.362454 
682.000000	204.928924 
682.500000	205.486856 
683.000000	204.007530 
683.500000	200.432446 
684.000000	196.765053 
684.500000	196.152878 
685.000000	195.883553 
685.500000	194.608939 
686.000000	191.478219 
686.500000	189.399636 
687.000000	187.751977 
687.500000	185.013090 
688.000000	181.008515 
688.500000	176.819174 
689.000000	174.118106 
689.500000	172.667840 
690.000000	171.292810 
690.500000	168.473825 
691.000000	164.948454 
691.500000	160.703446 
692.000000	156.887750 
692.500000	154.472371 
693.000000	152.406500 
693.500000	149.527015 
694.000000	145.237287 
694.500000	141.841015 
695.000000	138.797734 
695.500000	136.099106 
696.000000	131.565090 
696.500000	127.546106 
697.000000	123.395045 
697.500000	120.336613 
698.000000	117.117696 
698.500000	115.247530 
699.000000	113.440378 
699.500000	111.888590 
700.000000	108.503446 
700.500000	104.746439 
701.000000	101.191681 
701.500000	98.784159  
702.000000	96.012583  
702.500000	93.236507  
703.000000	90.039234  
703.500000	87.279212  
704.000000	83.981250  
704.500000	81.149545  
705.000000	78.888984  
705.500000	77.334909  
706.000000	75.898037  
706.500000	74.621166  
707.000000	73.169795  
707.500000	71.214500  
708.000000	69.276666  
708.500000	66.793916  
709.000000	64.649378  
709.500000	62.180106  
710.000000	60.486568  
710.500000	58.554227  
711.000000	56.447598  
711.500000	54.130393  
712.000000	52.907219  
712.500000	52.559560  
713.000000	52.284371  
713.500000	50.674015  
714.000000	48.586113  
714.500000	46.420143  
715.000000	45.050643  
715.500000	43.255409  
716.000000	41.321257  
716.500000	39.588416  
717.000000	38.526174  
717.500000	37.327136  
718.000000	35.805204  
718.500000	34.816666  
719.000000	34.346378  
719.500000	33.985924  
720.000000	33.457999  
720.500000	32.631287  
721.000000	31.886598  
721.500000	30.378318  
722.000000	29.248621  
722.500000	27.990916  
723.000000	27.299886  
723.500000	26.407151  
724.000000	25.951750  
724.500000	25.016386  
725.000000	23.776500  
725.500000	22.722007  
726.000000	22.363280  
726.500000	22.211750  
727.000000	21.640825  
727.500000	20.980219  
728.000000	20.579840  
728.500000	20.241734  
729.000000	19.636439  
729.500000	18.973954  
730.000000	18.556318  
730.500000	18.302818  
731.000000	17.845704  
731.500000	17.264681  
732.000000	16.832469  
732.500000	16.483780  
733.000000	15.923628  
733.500000	15.228674  
734.000000	14.414666  
734.500000	13.556871  
735.000000	13.167696  
735.500000	13.168962  
736.000000	13.436174  
736.500000	13.286219  
737.000000	13.039325  
737.500000	12.784719  
738.000000	12.596810  
738.500000	12.154022  
739.000000	11.758265  
739.500000	11.320916  
740.000000	10.891636  
740.500000	10.874696  
741.000000	11.117318  
741.500000	11.180037  
742.000000	10.929053  
742.500000	10.702628  
743.000000	10.483446  
743.500000	10.143772  
744.000000	9.879000   
744.500000	10.011545  
745.000000	10.020500  
745.500000	9.506212   
746.000000	8.836121   
746.500000	8.432159   
747.000000	8.313348   
747.500000	8.197537   
748.000000	7.926939   
748.500000	7.539007   
749.000000	7.180515   
749.500000	7.134598   
750.000000	7.379257   
750.500000	7.706356   
751.000000	7.702939   
751.500000	7.540090   
752.000000	7.219007   
752.500000	6.965909   
753.000000	6.655113   
753.500000	6.415636   
754.000000	6.337045   
754.500000	6.455598   
755.000000	6.442053   
755.500000	6.316878   
756.000000	6.146212   
756.500000	5.998507   
757.000000	5.753068   
757.500000	5.561863   
758.000000	5.514969   
758.500000	5.564977   
759.000000	5.690515   
759.500000	5.847651   
760.000000	5.818871   
760.500000	5.390287   
761.000000	4.893371   
761.500000	4.590901   
762.000000	4.583727   
762.500000	4.649106   
763.000000	4.829522   
763.500000	4.910780   
764.000000	4.798454   
764.500000	4.555030   
765.000000	4.461234   
765.500000	4.565477   
766.000000	4.546696   
766.500000	4.507068   
767.000000	4.355136   
767.500000	4.195749   
768.000000	4.014106   
768.500000	3.934015   
769.000000	4.120992   
769.500000	4.225037   
770.000000	4.317765   
770.500000	4.185159   
771.000000	4.147795   
771.500000	3.963712   
772.000000	3.983954   
772.500000	3.957992   
773.000000	3.865431   
773.500000	3.730734   
774.000000	3.642287   
774.500000	3.547136   
775.000000	3.353795   
775.500000	3.298636   
776.000000	3.378045   
776.500000	3.466893   
777.000000	3.425825   
777.500000	3.462136   
778.000000	3.432530   
778.500000	3.445893   
779.000000	3.273136   
779.500000	3.142772   
780.000000	2.876727   
780.500000	2.799318   
781.000000	2.862954   
781.500000	3.110780   
782.000000	3.202810   
782.500000	3.185553   
783.000000	3.075924   
783.500000	3.029181   
784.000000	2.968469   
784.500000	2.950272   
785.000000	2.890007   
785.500000	2.955757   
786.000000	2.938825   
786.500000	2.870750   
787.000000	2.733325   
787.500000	2.755015   
788.000000	2.889083   
788.500000	3.022318   
789.000000	3.009946   
789.500000	2.846643   
790.000000	2.771613   
790.500000	2.707303   
791.000000	2.708037   
791.500000	2.684704   
792.000000	2.828378   
792.500000	2.913295   
793.000000	2.886492   
793.500000	2.751007   
794.000000	2.546280   
794.500000	2.379590   
795.000000	2.370181   
795.500000	2.691424   
796.000000	2.812265   
796.500000	2.696856   
797.000000	2.382356   
797.500000	2.293409   
798.000000	2.245477   
798.500000	2.191674   
799.000000	2.245871   
799.500000	2.385303   
800.000000	2.394060   
800.500000	2.258401   
801.000000	2.257772   
801.500000	2.513348   
802.000000	2.716765   
802.500000	2.713090   
803.000000	2.439931   
803.500000	2.277136   
804.000000	2.214462   
804.500000	2.218257   
805.000000	2.049969   
805.500000	1.840196   
806.000000	1.698984   
806.500000	1.668871   
807.000000	1.692507   
807.500000	1.667393   
808.000000	1.763833   
808.500000	1.821969   
809.000000	1.891121   
809.500000	1.846318   
810.000000	1.805409   
810.500000	1.651613   
811.000000	1.611318   
811.500000	1.780704   
812.000000	1.972863   
812.500000	1.809598   
813.000000	1.445378   
813.500000	1.292000   
814.000000	1.432659   
814.500000	1.570242   
815.000000	1.562174   
815.500000	1.421886   
816.000000	1.350363   
816.500000	1.273871   
817.000000	1.346083   
817.500000	1.433060   
818.000000	1.487000   
818.500000	1.513901   
819.000000	1.534401   
819.500000	1.562257   
820.000000	1.660545   
820.500000	1.780628   
821.000000	1.837909   
821.500000	1.894500   
822.000000	2.050515   
822.500000	2.118257   
823.000000	2.084272   
823.500000	2.092560   
824.000000	2.456590   
824.500000	2.740393   
825.000000	2.597772   
825.500000	2.281765   
826.000000	2.199030   
826.500000	2.382234   
827.000000	2.434439   
827.500000	2.267833   
828.000000	1.883878   
828.500000	1.582924   
829.000000	1.465022   
829.500000	1.650151   
830.000000	1.835651   
830.500000	1.856742   
831.000000	1.677393   
831.500000	1.446628   
832.000000	1.288227   
832.500000	1.278537   
833.000000	1.280007   
833.500000	1.184227   
834.000000	1.038954   
834.500000	0.991583   
835.000000	1.064954   
835.500000	1.088113   
836.000000	0.963840   
836.500000	0.850856   
837.000000	0.864151   
837.500000	1.034492   
838.000000	1.067568   
838.500000	1.021787   
839.000000	0.883386   
839.500000	0.793696   
840.000000	0.733477   
840.500000	0.661696   
841.000000	0.640939   
841.500000	0.538825   
842.000000	0.493643   
842.500000	0.429659   
843.000000	0.570893   
843.500000	0.616515   
844.000000	0.617075   
844.500000	0.537128   
845.000000	0.462499   
845.500000	0.424909   
846.000000	0.332712   
846.500000	0.352871   
847.000000	0.473484   
847.500000	0.682462   
848.000000	0.692363   
848.500000	0.684734   
849.000000	0.677037   
849.500000	0.648583   
850.000000	0.559901   
850.500000	0.442727   
851.000000	0.367166   
851.500000	0.288590   
852.000000	0.159568   
852.500000	0.088696   
853.000000	0.201265   
853.500000	0.290909   
854.000000	0.150840   
854.500000	-0.151598  
855.000000	-0.264477  
855.500000	-0.099181  
856.000000	0.077386   
856.500000	0.076393   
857.000000	0.007022   
857.500000	-0.035681  
858.000000	-0.047992  
858.500000	-0.018537  
859.000000	-0.001757  
859.500000	-0.008053  
860.000000	-0.131068  
860.500000	-0.133750  
861.000000	-0.087893  
861.500000	0.039462   
862.000000	0.055484   
862.500000	0.033613   
863.000000	0.007734   
863.500000	0.088750   
864.000000	0.165106   
864.500000	0.090553   
865.000000	-0.039265  
865.500000	-0.114530  
866.000000	0.010424   
866.500000	0.137166   
867.000000	0.126878   
867.500000	-0.072977  
868.000000	-0.262060  
868.500000	-0.223128  
869.000000	-0.029924  
869.500000	0.190234   
870.000000	0.245340   
870.500000	0.167628   
871.000000	0.074318   
871.500000	0.008219   
872.000000	-0.079863  
872.500000	-0.134121  
873.000000	-0.088484  
873.500000	0.057409   
874.000000	0.186242   
874.500000	0.139537   
875.000000	0.015416   
875.500000	-0.064484  
876.000000	-0.038181  
876.500000	0.037303   
877.000000	0.071674   
877.500000	-0.011712  
878.000000	-0.057757  
878.500000	-0.121424  
879.000000	-0.185227  
879.500000	-0.199659  
880.000000	-0.108439  
880.500000	0.016098   
881.000000	0.018257   
881.500000	-0.066742  
882.000000	-0.177348  
882.500000	-0.007583  
883.000000	0.187636   
883.500000	0.361212   
884.000000	0.182810   
884.500000	0.042431   
885.000000	-0.016825  
885.500000	0.119628   
886.000000	0.095878   
886.500000	0.006613   
887.000000	-0.112333  
887.500000	-0.150590  
888.000000	-0.145121  
888.500000	-0.121250  
889.000000	-0.083128  
889.500000	-0.065500  
890.000000	-0.039742  
890.500000	0.039818   
891.000000	0.148545   
891.500000	0.175250   
892.000000	0.093030   
892.500000	0.013750   
893.000000	0.003249   
893.500000	0.018378   
894.000000	0.023598   
894.500000	-0.012242  
895.000000	-0.072681  
895.500000	-0.147234  
896.000000	-0.141772  
896.500000	-0.090204  
897.000000	-0.022742  
897.500000	-0.005696  
898.000000	0.009409   
898.500000	0.036212   
899.000000	0.024742   
899.500000	-0.118227  
900.000000	-0.449113  
900.500000	-0.911000  

