PE FL                   SPECTRUM    ASCII       PEDS        1.60        
  -1
S12R#50.SP
24/04/15
16:49:33.00
24/04/15
16:50:59.00
Jan

900.500000
1









LS55
405.00
5.00
5.00
SCAN
1
20
100
100
0
400
0
1
0
1
5
ON
900 405 
1 0 0
#HDR
-1
-1
#GR
NM

0.00002384185791015625
0.0
450.000000
0.500000
902
8
151.162181
-0.387265
#DATA
450.000000	-0.199000  
450.500000	-0.132803  
451.000000	-0.066181  
451.500000	-0.020022  
452.000000	-0.103030  
452.500000	-0.083962  
453.000000	0.011909   
453.500000	0.193212   
454.000000	0.214431   
454.500000	0.211196   
455.000000	0.101037   
455.500000	-0.043500  
456.000000	-0.238909  
456.500000	-0.199545  
457.000000	-0.060734  
457.500000	0.055969   
458.000000	0.003196   
458.500000	-0.029219  
459.000000	-0.112219  
459.500000	-0.204871  
460.000000	-0.376356  
460.500000	-0.251340  
461.000000	-0.014386  
461.500000	0.211250   
462.000000	0.031446   
462.500000	-0.186946  
463.000000	-0.253484  
463.500000	-0.049060  
464.000000	0.095318   
464.500000	0.119803   
465.000000	0.012939   
465.500000	-0.119568  
466.000000	-0.286204  
466.500000	-0.358219  
467.000000	-0.387265  
467.500000	-0.296477  
468.000000	-0.190613  
468.500000	0.032507   
469.000000	0.084189   
469.500000	0.095500   
470.000000	-0.049696  
470.500000	-0.169037  
471.000000	-0.267893  
471.500000	-0.153825  
472.000000	0.025416   
472.500000	-0.007287  
473.000000	-0.246939  
473.500000	-0.314181  
474.000000	-0.070378  
474.500000	0.055537   
475.000000	0.050204   
475.500000	0.021348   
476.000000	0.086151   
476.500000	0.099136   
477.000000	0.199704   
477.500000	0.304045   
478.000000	0.327871   
478.500000	0.176113   
479.000000	0.069015   
479.500000	0.031492   
480.000000	0.031401   
480.500000	0.009166   
481.000000	-0.120621  
481.500000	-0.247840  
482.000000	-0.114537  
482.500000	0.096954   
483.000000	0.022727   
483.500000	-0.253409  
484.000000	-0.319196  
484.500000	-0.176946  
485.000000	-0.095462  
485.500000	-0.196666  
486.000000	-0.248787  
486.500000	-0.205575  
487.000000	-0.080045  
487.500000	0.059719   
488.000000	0.102295   
488.500000	0.023462   
489.000000	-0.018992  
489.500000	0.002143   
490.000000	-0.021689  
490.500000	-0.061250  
491.000000	-0.047848  
491.500000	0.098015   
492.000000	0.157174   
492.500000	0.197886   
493.000000	0.125250   
493.500000	0.076924   
494.000000	-0.014446  
494.500000	-0.006303  
495.000000	0.133000   
495.500000	0.262810   
496.000000	0.248939   
496.500000	0.255159   
497.000000	0.365250   
497.500000	0.477772   
498.000000	0.490696   
498.500000	0.599310   
499.000000	0.682871   
499.500000	0.761333   
500.000000	0.638954   
500.500000	0.659484   
501.000000	0.695212   
501.500000	0.792893   
502.000000	0.768075   
502.500000	0.808007   
503.000000	0.816106   
503.500000	0.844454   
504.000000	0.817424   
504.500000	0.871696   
505.000000	1.046000   
505.500000	1.217939   
506.000000	1.479848   
506.500000	1.579939   
507.000000	1.652068   
507.500000	1.641272   
508.000000	1.757681   
508.500000	1.951356   
509.000000	2.153484   
509.500000	2.303075   
510.000000	2.410939   
510.500000	2.567075   
511.000000	2.626590   
511.500000	2.687219   
512.000000	2.671598   
512.500000	2.739810   
513.000000	2.900318   
513.500000	2.968303   
514.000000	2.963757   
514.500000	2.956954   
515.000000	2.985204   
515.500000	2.953340   
516.000000	2.855977   
516.500000	2.877363   
517.000000	2.944840   
517.500000	3.055893   
518.000000	3.052181   
518.500000	3.095909   
519.000000	3.142848   
519.500000	3.228257   
520.000000	3.198492   
520.500000	3.064250   
521.000000	3.037265   
521.500000	3.227409   
522.000000	3.434257   
522.500000	3.479924   
523.000000	3.391022   
523.500000	3.495636   
524.000000	3.600893   
524.500000	3.708598   
525.000000	3.815507   
525.500000	4.113893   
526.000000	4.412515   
526.500000	4.569166   
527.000000	4.632727   
527.500000	4.684393   
528.000000	4.830666   
528.500000	4.880977   
529.000000	4.975439   
529.500000	5.006742   
530.000000	5.214734   
530.500000	5.567242   
531.000000	6.025431   
531.500000	6.226068   
532.000000	6.268287   
532.500000	6.223931   
533.000000	6.455075   
533.500000	6.720083   
534.000000	7.082848   
534.500000	7.392363   
535.000000	7.833704   
535.500000	8.139840   
536.000000	8.521886   
536.500000	8.872333   
537.000000	9.409287   
537.500000	10.008568  
538.000000	10.625515  
538.500000	11.187348  
539.000000	11.560553  
539.500000	11.569719  
540.000000	11.445060  
540.500000	11.851590  
541.000000	12.934409  
541.500000	14.019886  
542.000000	14.356272  
542.500000	13.813265  
543.000000	13.112901  
543.500000	12.654803  
544.000000	12.282356  
544.500000	11.938053  
545.000000	11.488295  
545.500000	11.047621  
546.000000	10.561393  
546.500000	10.255015  
547.000000	9.817295   
547.500000	9.212734   
548.000000	8.213515   
548.500000	7.367068   
549.000000	6.783522   
549.500000	6.353651   
550.000000	5.757037   
550.500000	5.276045   
551.000000	4.812931   
551.500000	4.427689   
552.000000	3.850696   
552.500000	3.409674   
553.000000	3.219083   
553.500000	3.340280   
554.000000	3.517166   
554.500000	3.574984   
555.000000	3.395128   
555.500000	3.207151   
556.000000	3.060780   
556.500000	3.035257   
557.000000	2.938030   
557.500000	2.935825   
558.000000	3.100113   
558.500000	3.365386   
559.000000	3.371333   
559.500000	3.128613   
560.000000	2.865007   
560.500000	2.924772   
561.000000	3.210696   
561.500000	3.491257   
562.000000	3.485696   
562.500000	3.371643   
563.000000	3.150856   
563.500000	3.114803   
564.000000	3.186121   
564.500000	3.357575   
565.000000	3.282553   
565.500000	3.084166   
566.000000	2.898553   
566.500000	2.916159   
567.000000	2.891522   
567.500000	2.908242   
568.000000	2.959189   
568.500000	3.200401   
569.000000	3.287977   
569.500000	3.295507   
570.000000	3.110810   
570.500000	2.987537   
571.000000	2.959295   
571.500000	3.248659   
572.000000	3.573462   
572.500000	3.687787   
573.000000	3.429757   
573.500000	3.191795   
574.000000	3.166863   
574.500000	3.331212   
575.000000	3.513454   
575.500000	3.552333   
576.000000	3.490030   
576.500000	3.249871   
577.000000	3.157098   
577.500000	3.136037   
578.000000	3.293840   
578.500000	3.297136   
579.000000	3.285499   
579.500000	3.200234   
580.000000	3.266719   
580.500000	3.328931   
581.000000	3.358007   
581.500000	3.365530   
582.000000	3.368787   
582.500000	3.434060   
583.000000	3.343560   
583.500000	3.176765   
584.000000	2.891098   
584.500000	2.963878   
585.000000	3.297666   
585.500000	3.781946   
586.000000	4.088318   
586.500000	4.121492   
587.000000	3.970666   
587.500000	3.894113   
588.000000	3.928492   
588.500000	3.768954   
589.000000	3.624681   
589.500000	3.629340   
590.000000	3.900719   
590.500000	4.158856   
591.000000	4.376856   
591.500000	4.583522   
592.000000	4.654075   
592.500000	4.575181   
593.000000	4.466984   
593.500000	4.411522   
594.000000	4.258545   
594.500000	4.267469   
595.000000	4.427553   
595.500000	4.625954   
596.000000	4.702462   
596.500000	4.936454   
597.000000	5.193363   
597.500000	5.350833   
598.000000	5.168446   
598.500000	5.281659   
599.000000	5.595969   
599.500000	5.931909   
600.000000	5.777734   
600.500000	5.787924   
601.000000	6.139636   
601.500000	6.723242   
602.000000	6.966416   
602.500000	6.985765   
603.000000	6.994651   
603.500000	7.020651   
604.000000	7.037560   
604.500000	7.225348   
605.000000	7.583621   
605.500000	8.171242   
606.000000	8.605151   
606.500000	8.626681   
607.000000	8.267878   
607.500000	8.002439   
608.000000	8.038840   
608.500000	8.721696   
609.000000	9.652265   
609.500000	10.532454  
610.000000	10.904659  
610.500000	11.110833  
611.000000	11.347924  
611.500000	11.878333  
612.000000	12.113946  
612.500000	12.392439  
613.000000	12.573136  
613.500000	12.705037  
614.000000	12.802378  
614.500000	13.280219  
615.000000	14.038045  
615.500000	14.845325  
616.000000	15.485242  
616.500000	15.907621  
617.000000	16.466454  
617.500000	16.908151  
618.000000	17.626431  
618.500000	18.389227  
619.000000	19.197363  
619.500000	19.734818  
620.000000	19.966090  
620.500000	20.572674  
621.000000	21.431022  
621.500000	22.356143  
622.000000	22.596500  
622.500000	23.034189  
623.000000	23.698492  
623.500000	24.831545  
624.000000	25.551484  
624.500000	26.305765  
625.000000	27.272053  
625.500000	28.775840  
626.000000	29.662386  
626.500000	30.407575  
627.000000	31.112454  
627.500000	32.694840  
628.000000	33.954318  
628.500000	35.071636  
629.000000	35.845553  
629.500000	36.955386  
630.000000	38.284333  
630.500000	39.834053  
631.000000	41.662545  
631.500000	43.317272  
632.000000	44.869568  
632.500000	45.777196  
633.000000	46.738363  
633.500000	47.647356  
634.000000	49.624863  
634.500000	51.195931  
635.000000	52.726280  
635.500000	54.031454  
636.000000	56.288939  
636.500000	58.170515  
637.000000	59.933424  
637.500000	61.330371  
638.000000	63.106189  
638.500000	64.512037  
639.000000	65.505651  
639.500000	66.527598  
640.000000	68.054477  
640.500000	70.136151  
641.000000	72.151121  
641.500000	74.501666  
642.000000	77.477333  
642.500000	80.901363  
643.000000	83.623628  
643.500000	85.559409  
644.000000	86.640007  
644.500000	87.120977  
645.000000	87.167386  
645.500000	88.695249  
646.000000	91.726439  
646.500000	95.595628  
647.000000	97.607189  
647.500000	98.435954  
648.000000	98.118037  
648.500000	99.684954  
649.000000	102.366545 
649.500000	105.306553 
650.000000	105.727916 
650.500000	105.705454 
651.000000	107.599598 
651.500000	111.626000 
652.000000	114.849090 
652.500000	116.217939 
653.000000	117.055878 
653.500000	118.310075 
654.000000	120.471378 
654.500000	122.653030 
655.000000	124.295643 
655.500000	124.611719 
656.000000	124.533659 
656.500000	125.528098 
657.000000	128.205363 
657.500000	131.169431 
658.000000	133.170242 
658.500000	134.287204 
659.000000	135.525795 
659.500000	138.276946 
660.000000	140.034984 
660.500000	140.823431 
661.000000	140.173484 
661.500000	140.387151 
662.000000	140.602204 
662.500000	141.594621 
663.000000	142.795696 
663.500000	144.351113 
664.000000	145.306234 
664.500000	144.772696 
665.000000	145.011909 
665.500000	145.908439 
666.000000	147.840446 
666.500000	148.158295 
667.000000	147.505886 
667.500000	146.167530 
668.000000	146.034613 
668.500000	147.365181 
669.000000	149.729439 
669.500000	151.162181 
670.000000	149.457121 
670.500000	147.174386 
671.000000	146.662954 
671.500000	148.080242 
672.000000	148.656484 
672.500000	147.638840 
673.000000	146.443742 
673.500000	145.955409 
674.000000	146.030840 
674.500000	145.570295 
675.000000	144.486500 
675.500000	142.758856 
676.000000	141.806272 
676.500000	140.438742 
677.000000	138.569886 
677.500000	136.968636 
678.000000	136.155719 
678.500000	135.360636 
679.000000	133.436856 
679.500000	131.176371 
680.000000	129.014977 
680.500000	126.522106 
681.000000	123.674333 
681.500000	121.964636 
682.000000	120.713537 
682.500000	119.129901 
683.000000	116.744053 
683.500000	113.848969 
684.000000	111.339492 
684.500000	108.897537 
685.000000	106.228954 
685.500000	103.538977 
686.000000	101.676378 
686.500000	100.829818 
687.000000	99.319863  
687.500000	96.888659  
688.000000	94.074795  
688.500000	91.984250  
689.000000	89.547787  
689.500000	87.492219  
690.000000	85.252992  
690.500000	83.521795  
691.000000	80.779143  
691.500000	78.119409  
692.000000	75.519651  
692.500000	73.741621  
693.000000	71.660015  
693.500000	69.886825  
694.000000	67.993840  
694.500000	66.413803  
695.000000	64.747787  
695.500000	62.689689  
696.000000	60.828469  
696.500000	59.256992  
697.000000	57.755022  
697.500000	55.556962  
698.000000	53.078962  
698.500000	51.000712  
699.000000	49.999825  
699.500000	48.871143  
700.000000	47.290598  
700.500000	46.070492  
701.000000	45.771931  
701.500000	45.279469  
702.000000	43.895886  
702.500000	41.430295  
703.000000	39.091280  
703.500000	37.675962  
704.000000	37.061212  
704.500000	36.301765  
705.000000	35.285083  
705.500000	34.212060  
706.000000	33.444037  
706.500000	32.867318  
707.000000	32.203946  
707.500000	31.417174  
708.000000	30.258484  
708.500000	28.915946  
709.000000	27.890515  
709.500000	27.413128  
710.000000	27.077772  
710.500000	26.879636  
711.000000	26.107121  
711.500000	24.727954  
712.000000	23.135348  
712.500000	22.397901  
713.000000	22.137159  
713.500000	21.904954  
714.000000	21.278295  
714.500000	20.601454  
715.000000	19.985386  
715.500000	19.394287  
716.000000	18.878015  
716.500000	18.502992  
717.000000	18.122590  
717.500000	17.752666  
718.000000	17.278515  
718.500000	16.801477  
719.000000	16.364765  
719.500000	16.327007  
720.000000	16.209590  
720.500000	16.010825  
721.000000	15.486757  
721.500000	14.999810  
722.000000	14.231954  
722.500000	13.302734  
723.000000	12.620704  
723.500000	12.714787  
724.000000	12.908575  
724.500000	12.623515  
725.000000	12.002931  
725.500000	11.704575  
726.000000	11.902507  
726.500000	11.942878  
727.000000	11.714106  
727.500000	11.090575  
728.000000	10.434424  
728.500000	9.863719   
729.000000	9.618749   
729.500000	9.338234   
730.000000	9.220939   
730.500000	9.187469   
731.000000	9.481916   
731.500000	9.607962   
732.000000	9.377492   
732.500000	8.813151   
733.000000	8.416969   
733.500000	8.186984   
734.000000	8.265651   
734.500000	8.213060   
735.000000	7.992901   
735.500000	7.607265   
736.000000	7.480234   
736.500000	7.523893   
737.000000	7.576295   
737.500000	7.320462   
738.000000	7.180113   
738.500000	7.191310   
739.000000	7.183416   
739.500000	6.905628   
740.000000	6.581469   
740.500000	6.410931   
741.000000	6.382689   
741.500000	6.342181   
742.000000	6.099068   
742.500000	5.700348   
743.000000	5.502765   
743.500000	5.648704   
744.000000	6.037181   
744.500000	5.929439   
745.000000	5.541075   
745.500000	5.072765   
746.000000	5.193522   
746.500000	5.232492   
747.000000	5.245825   
747.500000	5.072795   
748.000000	5.372613   
748.500000	5.454651   
749.000000	5.233787   
749.500000	4.683886   
750.000000	4.498136   
750.500000	4.755053   
751.000000	5.247242   
751.500000	5.559992   
752.000000	5.440393   
752.500000	5.070704   
753.000000	4.659742   
753.500000	4.580772   
754.000000	4.424348   
754.500000	4.157189   
755.000000	3.795083   
755.500000	3.641431   
756.000000	3.728212   
756.500000	3.892030   
757.000000	3.910356   
757.500000	3.933121   
758.000000	4.112007   
758.500000	4.299128   
759.000000	4.218303   
759.500000	3.908962   
760.000000	3.517825   
760.500000	3.688325   
761.000000	4.029477   
761.500000	4.277477   
762.000000	3.870583   
762.500000	3.409075   
763.000000	3.210568   
763.500000	3.589689   
764.000000	3.900666   
764.500000	3.904492   
765.000000	3.668136   
765.500000	3.470712   
766.000000	3.577401   
766.500000	3.608992   
767.000000	3.501318   
767.500000	3.310196   
768.000000	3.283363   
768.500000	3.189090   
769.000000	3.063416   
769.500000	2.909924   
770.000000	2.937606   
770.500000	3.017166   
771.000000	3.080886   
771.500000	3.087992   
772.000000	3.020719   
772.500000	2.964651   
773.000000	2.948212   
773.500000	3.031363   
774.000000	2.998462   
774.500000	2.870871   
775.000000	2.672515   
775.500000	2.786234   
776.000000	3.068068   
776.500000	3.238515   
777.000000	3.122840   
777.500000	2.961227   
778.000000	2.940939   
778.500000	2.994712   
779.000000	3.042174   
779.500000	3.086083   
780.000000	3.132181   
780.500000	3.117765   
781.000000	3.069651   
781.500000	3.043416   
782.000000	3.017659   
782.500000	3.021621   
783.000000	2.998416   
783.500000	2.976628   
784.000000	2.944530   
784.500000	2.779924   
785.000000	2.587628   
785.500000	2.480121   
786.000000	2.610818   
786.500000	2.626454   
787.000000	2.531568   
787.500000	2.378537   
788.000000	2.575515   
788.500000	2.782280   
789.000000	2.946166   
789.500000	2.929833   
790.000000	2.955772   
790.500000	2.742757   
791.000000	2.530507   
791.500000	2.450098   
792.000000	2.634287   
792.500000	2.777916   
793.000000	2.828954   
793.500000	2.722477   
794.000000	2.521825   
794.500000	2.318045   
795.000000	2.311507   
795.500000	2.647916   
796.000000	2.753825   
796.500000	2.477250   
797.000000	2.068507   
797.500000	2.013803   
798.000000	2.009507   
798.500000	2.150492   
799.000000	2.163666   
799.500000	2.320765   
800.000000	2.202590   
800.500000	2.097795   
801.000000	1.956469   
801.500000	2.017477   
802.000000	1.942545   
802.500000	1.896303   
803.000000	1.962886   
803.500000	2.100931   
804.000000	2.152075   
804.500000	1.969439   
805.000000	1.878250   
805.500000	1.928318   
806.000000	2.085727   
806.500000	1.885969   
807.000000	1.678325   
807.500000	1.458189   
808.000000	1.490727   
808.500000	1.563878   
809.000000	1.820416   
809.500000	1.919462   
810.000000	1.980590   
810.500000	1.777280   
811.000000	1.719515   
811.500000	1.704053   
812.000000	1.818189   
812.500000	1.759295   
813.000000	1.522477   
813.500000	1.131856   
814.000000	0.991280   
814.500000	1.297674   
815.000000	1.697984   
815.500000	1.795272   
816.000000	1.531840   
816.500000	1.527242   
817.000000	1.729181   
817.500000	1.852931   
818.000000	1.559204   
818.500000	1.261590   
819.000000	1.336090   
819.500000	1.779522   
820.000000	2.203856   
820.500000	2.249606   
821.000000	2.151340   
821.500000	2.157257   
822.000000	2.382825   
822.500000	2.489333   
823.000000	2.554825   
823.500000	2.602553   
824.000000	2.653022   
824.500000	2.655007   
825.000000	2.556007   
825.500000	2.435128   
826.000000	2.226143   
826.500000	2.041992   
827.000000	1.907901   
827.500000	1.984265   
828.000000	1.985893   
828.500000	1.851484   
829.000000	1.570522   
829.500000	1.503954   
830.000000	1.537371   
830.500000	1.506363   
831.000000	1.283871   
831.500000	1.169787   
832.000000	1.189439   
832.500000	1.257098   
833.000000	1.265530   
833.500000	1.228909   
834.000000	1.204371   
834.500000	1.145962   
835.000000	1.094007   
835.500000	1.024083   
836.000000	0.941371   
836.500000	0.843803   
837.000000	0.783030   
837.500000	0.855666   
838.000000	0.959340   
838.500000	1.040757   
839.000000	1.039901   
839.500000	0.985303   
840.000000	0.767303   
840.500000	0.631803   
841.000000	0.609424   
841.500000	0.790984   
842.000000	0.796833   
842.500000	0.694977   
843.000000	0.587734   
843.500000	0.697446   
844.000000	0.730659   
844.500000	0.639318   
845.000000	0.436030   
845.500000	0.339946   
846.000000	0.333803   
846.500000	0.341030   
847.000000	0.423606   
847.500000	0.488174   
848.000000	0.547083   
848.500000	0.432075   
849.000000	0.364787   
849.500000	0.266575   
850.000000	0.319075   
850.500000	0.248545   
851.000000	0.186825   
851.500000	0.069999   
852.000000	0.163189   
852.500000	0.199621   
853.000000	0.071924   
853.500000	-0.195719  
854.000000	-0.242454  
854.500000	-0.111181  
855.000000	-0.030560  
855.500000	-0.166765  
856.000000	-0.187371  
856.500000	-0.074613  
857.000000	0.076295   
857.500000	0.058590   
858.000000	0.017946   
858.500000	-0.011803  
859.000000	0.056348   
859.500000	0.123507   
860.000000	0.209878   
860.500000	0.277780   
861.000000	0.252666   
861.500000	0.195159   
862.000000	0.169462   
862.500000	0.287068   
863.000000	0.344681   
863.500000	0.280462   
864.000000	0.119583   
864.500000	0.087310   
865.000000	0.040189   
865.500000	-0.018553  
866.000000	-0.064787  
866.500000	-0.029825  
867.000000	0.047765   
867.500000	0.075189   
868.000000	0.077765   
868.500000	-0.007333  
869.000000	-0.057272  
869.500000	-0.085780  
870.000000	-0.003121  
870.500000	-0.007606  
871.000000	-0.031696  
871.500000	-0.038189  
872.000000	0.090371   
872.500000	0.227651   
873.000000	0.256189   
873.500000	0.071007   
874.000000	-0.153621  
874.500000	-0.266053  
875.000000	-0.217681  
875.500000	-0.118992  
876.000000	-0.014689  
876.500000	0.058075   
877.000000	0.038765   
877.500000	-0.010265  
878.000000	-0.000992  
878.500000	0.084856   
879.000000	0.097643   
879.500000	0.067901   
880.000000	0.053840   
880.500000	0.157856   
881.000000	0.104007   
881.500000	-0.015863  
882.000000	-0.101500  
882.500000	-0.042848  
883.000000	-0.037037  
883.500000	-0.073590  
884.000000	-0.075568  
884.500000	0.067772   
885.000000	0.147386   
885.500000	0.117098   
886.000000	-0.031371  
886.500000	-0.144909  
887.000000	-0.212000  
887.500000	-0.129007  
888.000000	-0.088500  
888.500000	-0.090431  
889.000000	-0.154583  
889.500000	-0.105015  
890.000000	-0.026696  
890.500000	0.010128   
891.000000	-0.032212  
891.500000	-0.034522  
892.000000	-0.090106  
892.500000	-0.147522  
893.000000	-0.205598  
893.500000	-0.089371  
894.000000	0.058621   
894.500000	0.181113   
895.000000	0.169378   
895.500000	0.176401   
896.000000	0.141621   
896.500000	0.099287   
897.000000	0.010219   
897.500000	-0.025250  
898.000000	-0.016303  
898.500000	-0.042833  
899.000000	-0.148719  
899.500000	-0.219272  
900.000000	-0.081189  
900.500000	0.269000   

