PE FL                   SPECTRUM    ASCII       PEDS        1.60        
  -1
S12R#09.SP
24/04/15
15:51:05.00
24/04/15
15:52:30.00
Jan

900.500000
1









LS55
405.00
5.00
5.00
SCAN
1
20
100
100
0
400
0
1
0
1
5
ON
900 405 
1 0 0
#HDR
-1
-1
#GR
NM

0.00002384185791015625
0.0
450.000000
0.500000
902
8
206.245530
-0.401143
#DATA
450.000000	-0.031999  
450.500000	0.023674   
451.000000	0.075795   
451.500000	0.094954   
452.000000	0.068787   
452.500000	-0.023068  
453.000000	-0.042666  
453.500000	0.003931   
454.000000	-0.021378  
454.500000	-0.174901  
455.000000	-0.230969  
455.500000	-0.007106  
456.000000	0.220825   
456.500000	0.191977   
457.000000	0.039030   
457.500000	0.046499   
458.000000	0.071015   
458.500000	-0.077446  
459.000000	-0.294696  
459.500000	-0.218462  
460.000000	0.045916   
460.500000	0.138916   
461.000000	0.033143   
461.500000	-0.062575  
462.000000	-0.053166  
462.500000	-0.010969  
463.000000	0.075727   
463.500000	0.143075   
464.000000	0.109598   
464.500000	-0.051537  
465.000000	-0.151833  
465.500000	-0.064068  
466.000000	0.062106   
466.500000	0.153962   
467.000000	0.110121   
467.500000	-0.021189  
468.000000	-0.119310  
468.500000	0.044037   
469.000000	0.254507   
469.500000	0.317575   
470.000000	0.123363   
470.500000	0.051590   
471.000000	0.073916   
471.500000	0.127181   
472.000000	-0.017318  
472.500000	-0.193121  
473.000000	-0.318416  
473.500000	-0.251318  
474.000000	-0.092007  
474.500000	0.079037   
475.000000	0.140469   
475.500000	0.102825   
476.000000	-0.004628  
476.500000	-0.053454  
477.000000	-0.125606  
477.500000	-0.202840  
478.000000	-0.368151  
478.500000	-0.386356  
479.000000	-0.401143  
479.500000	-0.264636  
480.000000	-0.149742  
480.500000	0.061204   
481.000000	0.032037   
481.500000	-0.096560  
482.000000	-0.248250  
482.500000	-0.113492  
483.000000	0.023704   
483.500000	0.058128   
484.000000	-0.142303  
484.500000	-0.305772  
485.000000	-0.202106  
485.500000	0.079568   
486.000000	0.235189   
486.500000	0.251431   
487.000000	0.270568   
487.500000	0.318780   
488.000000	0.206803   
488.500000	-0.013621  
489.000000	-0.132780  
489.500000	-0.125371  
490.000000	-0.162363  
490.500000	-0.204469  
491.000000	-0.176393  
491.500000	-0.042196  
492.000000	0.076568   
492.500000	0.169984   
493.000000	0.249416   
493.500000	0.318621   
494.000000	0.354863   
494.500000	0.497462   
495.000000	0.584878   
495.500000	0.491583   
496.000000	0.262196   
496.500000	0.197727   
497.000000	0.378757   
497.500000	0.611128   
498.000000	0.683356   
498.500000	0.660242   
499.000000	0.661689   
499.500000	0.731053   
500.000000	0.772227   
500.500000	0.820053   
501.000000	0.860909   
501.500000	0.957030   
502.000000	0.953060   
502.500000	0.861537   
503.000000	0.732106   
503.500000	0.685242   
504.000000	0.861242   
504.500000	1.216939   
505.000000	1.547628   
505.500000	1.493454   
506.000000	1.291727   
506.500000	1.299340   
507.000000	1.533909   
507.500000	1.731992   
508.000000	1.725628   
508.500000	1.853060   
509.000000	2.127787   
509.500000	2.414946   
510.000000	2.387583   
510.500000	2.379431   
511.000000	2.535704   
511.500000	2.796931   
512.000000	2.869128   
512.500000	2.828318   
513.000000	2.890962   
513.500000	3.037409   
514.000000	3.042803   
514.500000	3.100931   
515.000000	3.148992   
515.500000	3.232522   
516.000000	3.245280   
516.500000	3.277234   
517.000000	3.170371   
517.500000	2.950818   
518.000000	2.802621   
518.500000	2.977924   
519.000000	3.483106   
519.500000	3.756628   
520.000000	3.794340   
520.500000	3.763863   
521.000000	3.846310   
521.500000	3.764500   
522.000000	3.342386   
522.500000	3.042886   
523.000000	3.178386   
523.500000	3.655272   
524.000000	3.894840   
524.500000	3.998583   
525.000000	4.027000   
525.500000	4.193939   
526.000000	4.166060   
526.500000	4.281333   
527.000000	4.559848   
527.500000	5.084749   
528.000000	5.217893   
528.500000	5.087446   
529.000000	4.790772   
529.500000	5.009060   
530.000000	5.242204   
530.500000	5.546954   
531.000000	5.549121   
531.500000	5.688522   
532.000000	5.930060   
532.500000	6.283507   
533.000000	6.593469   
533.500000	6.842045   
534.000000	7.317636   
534.500000	7.747681   
535.000000	8.381909   
535.500000	8.705007   
536.000000	9.102916   
536.500000	9.338371   
537.000000	9.617606   
537.500000	9.698568   
538.000000	9.922742   
538.500000	10.123219  
539.000000	10.950174  
539.500000	11.886007  
540.000000	12.677393  
540.500000	12.785295  
541.000000	13.099818  
541.500000	13.558560  
542.000000	13.837113  
542.500000	13.903727  
543.000000	14.290053  
543.500000	14.776689  
544.000000	14.157136  
544.500000	12.956295  
545.000000	12.017772  
545.500000	11.769856  
546.000000	11.420962  
546.500000	10.795272  
547.000000	9.959696   
547.500000	8.944272   
548.000000	8.010174   
548.500000	7.557893   
549.000000	7.439196   
549.500000	7.202636   
550.000000	6.412477   
550.500000	5.541863   
551.000000	4.940053   
551.500000	4.751666   
552.000000	4.448704   
552.500000	3.894174   
553.000000	3.462568   
553.500000	3.547689   
554.000000	3.954257   
554.500000	4.043090   
555.000000	3.782121   
555.500000	3.427098   
556.000000	3.354219   
556.500000	3.378113   
557.000000	3.273257   
557.500000	3.096530   
558.000000	3.008136   
558.500000	3.091636   
559.000000	3.216098   
559.500000	3.311333   
560.000000	3.332159   
560.500000	3.184015   
561.000000	2.998522   
561.500000	2.877363   
562.000000	2.961280   
562.500000	3.067234   
563.000000	3.108212   
563.500000	3.097568   
564.000000	3.072469   
564.500000	3.063787   
565.000000	3.057401   
565.500000	3.117719   
566.000000	3.146772   
566.500000	3.198363   
567.000000	3.251681   
567.500000	3.340477   
568.000000	3.422590   
568.500000	3.625575   
569.000000	3.780371   
569.500000	3.798272   
570.000000	3.585000   
570.500000	3.474795   
571.000000	3.439477   
571.500000	3.462575   
572.000000	3.293704   
572.500000	3.331848   
573.000000	3.375780   
573.500000	3.380522   
574.000000	3.204795   
574.500000	3.247454   
575.000000	3.424500   
575.500000	3.550431   
576.000000	3.421371   
576.500000	3.232719   
577.000000	3.183628   
577.500000	3.308439   
578.000000	3.594416   
578.500000	3.855340   
579.000000	3.836181   
579.500000	3.666212   
580.000000	3.390962   
580.500000	3.400045   
581.000000	3.534265   
581.500000	3.743681   
582.000000	3.709128   
582.500000	3.480674   
583.000000	3.232386   
583.500000	3.109037   
584.000000	3.069848   
584.500000	3.118878   
585.000000	3.286560   
585.500000	3.419696   
586.000000	3.437325   
586.500000	3.411424   
587.000000	3.468121   
587.500000	3.656174   
588.000000	3.622030   
588.500000	3.648537   
589.000000	3.663962   
589.500000	3.831901   
590.000000	3.773265   
590.500000	3.627590   
591.000000	3.462098   
591.500000	3.483378   
592.000000	3.662242   
592.500000	4.064053   
593.000000	4.381787   
593.500000	4.189659   
594.000000	3.908477   
594.500000	4.057318   
595.000000	4.705666   
595.500000	5.289984   
596.000000	5.189810   
596.500000	4.770492   
597.000000	4.375022   
597.500000	4.417454   
598.000000	4.638136   
598.500000	4.867545   
599.000000	4.810462   
599.500000	4.829174   
600.000000	5.045242   
600.500000	5.316727   
601.000000	5.414416   
601.500000	5.441166   
602.000000	5.531499   
602.500000	5.775333   
603.000000	5.846409   
603.500000	5.845121   
604.000000	6.000750   
604.500000	6.472303   
605.000000	6.856030   
605.500000	7.043795   
606.000000	6.956227   
606.500000	6.830409   
607.000000	6.889825   
607.500000	7.064045   
608.000000	7.373681   
608.500000	7.509022   
609.000000	7.634409   
609.500000	7.666946   
610.000000	7.687992   
610.500000	7.911340   
611.000000	8.618553   
611.500000	9.440219   
612.000000	9.602265   
612.500000	9.611931   
613.000000	9.847628   
613.500000	10.616439  
614.000000	10.948810  
614.500000	11.019348  
615.000000	11.071424  
615.500000	11.569530  
616.000000	12.096537  
616.500000	12.656500  
617.000000	13.082106  
617.500000	13.300545  
618.000000	13.464356  
618.500000	13.808234  
619.000000	14.507803  
619.500000	15.271333  
620.000000	16.198545  
620.500000	16.789250  
621.000000	17.140151  
621.500000	17.174007  
622.000000	17.681363  
622.500000	18.484674  
623.000000	19.350946  
623.500000	19.903803  
624.000000	20.239227  
624.500000	20.771742  
625.000000	21.414409  
625.500000	22.416371  
626.000000	23.151340  
626.500000	24.126121  
627.000000	25.015727  
627.500000	26.146462  
628.000000	27.053825  
628.500000	28.205409  
629.000000	29.540621  
629.500000	30.681030  
630.000000	31.635098  
630.500000	32.171060  
631.000000	33.016242  
631.500000	33.782765  
632.000000	34.960318  
632.500000	36.155295  
633.000000	38.220931  
633.500000	40.390780  
634.000000	42.418303  
634.500000	43.578674  
635.000000	44.845772  
635.500000	46.445666  
636.000000	48.356909  
636.500000	49.131651  
637.000000	50.089628  
637.500000	51.438068  
638.000000	53.891924  
638.500000	55.419772  
639.000000	56.567651  
639.500000	57.919939  
640.000000	60.925765  
640.500000	63.499939  
641.000000	65.908439  
641.500000	67.861083  
642.000000	70.281757  
642.500000	71.891803  
643.000000	73.159242  
643.500000	74.553893  
644.000000	76.997727  
644.500000	79.155803  
645.000000	81.136287  
645.500000	83.583939  
646.000000	86.410045  
646.500000	89.457818  
647.000000	91.993037  
647.500000	94.247068  
648.000000	96.378227  
648.500000	98.798424  
649.000000	101.560659 
649.500000	104.554757 
650.000000	106.843719 
650.500000	108.921681 
651.000000	111.103666 
651.500000	113.247537 
652.000000	115.299356 
652.500000	116.211871 
653.000000	117.158712 
653.500000	119.527818 
654.000000	124.315356 
654.500000	129.225916 
655.000000	132.899924 
655.500000	135.617007 
656.000000	138.810257 
656.500000	141.646325 
657.000000	143.171325 
657.500000	144.168537 
658.000000	145.681636 
658.500000	148.574765 
659.000000	153.033113 
659.500000	156.587030 
660.000000	157.866371 
660.500000	158.525340 
661.000000	161.171272 
661.500000	165.056727 
662.000000	167.271659 
662.500000	168.282946 
663.000000	169.757545 
663.500000	172.771030 
664.000000	175.130469 
664.500000	176.913931 
665.000000	178.176878 
665.500000	179.740462 
666.000000	181.620878 
666.500000	183.537325 
667.000000	185.792636 
667.500000	187.652204 
668.000000	188.341204 
668.500000	186.581810 
669.000000	186.009333 
669.500000	188.135113 
670.000000	192.409757 
670.500000	195.038219 
671.000000	197.004772 
671.500000	197.718810 
672.000000	197.427469 
672.500000	196.728303 
673.000000	198.027522 
673.500000	201.806530 
674.000000	205.309007 
674.500000	206.212128 
675.000000	204.168484 
675.500000	202.614886 
676.000000	202.956310 
676.500000	205.433977 
677.000000	206.245530 
677.500000	205.536106 
678.000000	203.372007 
678.500000	203.019909 
679.000000	202.672083 
679.500000	203.283840 
680.000000	202.408689 
680.500000	201.804856 
681.000000	199.991136 
681.500000	198.123159 
682.000000	195.143356 
682.500000	193.378924 
683.000000	193.485378 
683.500000	193.659621 
684.000000	192.784643 
684.500000	189.837810 
685.000000	187.341030 
685.500000	185.933909 
686.000000	185.463204 
686.500000	181.949878 
687.000000	177.088325 
687.500000	172.391856 
688.000000	170.284053 
688.500000	167.813560 
689.000000	164.725272 
689.500000	161.320606 
690.000000	158.956939 
690.500000	156.259431 
691.000000	153.589136 
691.500000	151.782954 
692.000000	149.736545 
692.500000	146.933681 
693.000000	142.797113 
693.500000	139.464500 
694.000000	136.252810 
694.500000	132.911424 
695.000000	129.130795 
695.500000	126.109219 
696.000000	123.048651 
696.500000	119.498696 
697.000000	115.573818 
697.500000	112.037462 
698.000000	109.407242 
698.500000	106.887772 
699.000000	104.597371 
699.500000	102.318825 
700.000000	100.275113 
700.500000	97.656553  
701.000000	94.705962  
701.500000	90.998060  
702.000000	87.735659  
702.500000	84.721454  
703.000000	82.769613  
703.500000	81.198484  
704.000000	79.761606  
704.500000	77.562999  
705.000000	75.383477  
705.500000	73.152560  
706.000000	71.094189  
706.500000	69.032924  
707.000000	67.267689  
707.500000	65.835022  
708.000000	63.714477  
708.500000	61.169090  
709.000000	58.471325  
709.500000	56.692037  
710.000000	55.199984  
710.500000	53.618424  
711.000000	51.643295  
711.500000	50.310340  
712.000000	49.474060  
712.500000	48.741871  
713.000000	47.303916  
713.500000	45.726818  
714.000000	44.359484  
714.500000	42.745136  
715.000000	40.411454  
715.500000	38.441681  
716.000000	37.978575  
716.500000	37.621060  
717.000000	36.652053  
717.500000	35.025136  
718.000000	34.415204  
718.500000	33.847181  
719.000000	32.766992  
719.500000	31.094772  
720.000000	30.193037  
720.500000	29.553878  
721.000000	28.931666  
721.500000	27.983204  
722.000000	27.157083  
722.500000	26.593045  
723.000000	25.974719  
723.500000	25.215719  
724.000000	24.032325  
724.500000	23.248878  
725.000000	22.611992  
725.500000	22.427037  
726.000000	22.005136  
726.500000	21.841189  
727.000000	21.361621  
727.500000	20.446909  
728.000000	19.232818  
728.500000	18.399810  
729.000000	18.328250  
729.500000	18.117159  
730.000000	17.690780  
730.500000	17.321378  
731.000000	17.142371  
731.500000	16.589409  
732.000000	15.654295  
732.500000	15.111348  
733.000000	15.364053  
733.500000	15.572333  
734.000000	15.002416  
734.500000	14.261234  
735.000000	13.931265  
735.500000	13.763825  
736.000000	13.101121  
736.500000	12.145833  
737.000000	11.691886  
737.500000	11.668939  
738.000000	11.383560  
738.500000	11.224522  
739.000000	11.203250  
739.500000	11.219742  
740.000000	10.672962  
740.500000	10.041166  
741.000000	9.672628   
741.500000	9.883136   
742.000000	9.842893   
742.500000	9.706984   
743.000000	9.525560   
743.500000	9.443992   
744.000000	9.238977   
744.500000	9.135143   
745.000000	9.066704   
745.500000	9.110848   
746.000000	8.787053   
746.500000	8.368469   
747.000000	8.117583   
747.500000	8.129401   
748.000000	7.924189   
748.500000	7.501462   
749.000000	7.051136   
749.500000	6.929333   
750.000000	6.992204   
750.500000	6.892484   
751.000000	6.686454   
751.500000	6.636568   
752.000000	6.489166   
752.500000	6.271409   
753.000000	6.083333   
753.500000	6.071772   
754.000000	6.144371   
754.500000	6.227386   
755.000000	6.130409   
755.500000	5.899810   
756.000000	5.609151   
756.500000	5.459719   
757.000000	5.427954   
757.500000	5.382310   
758.000000	5.404439   
758.500000	5.488181   
759.000000	5.345257   
759.500000	5.155530   
760.000000	4.961681   
760.500000	4.926522   
761.000000	4.794037   
761.500000	4.700462   
762.000000	4.446734   
762.500000	4.415015   
763.000000	4.454257   
763.500000	4.761643   
764.000000	4.860189   
764.500000	4.905750   
765.000000	4.830704   
765.500000	4.861068   
766.000000	4.618416   
766.500000	4.253348   
767.000000	3.999750   
767.500000	4.222424   
768.000000	4.485159   
768.500000	4.671977   
769.000000	4.572303   
769.500000	4.466515   
770.000000	4.157469   
770.500000	3.859583   
771.000000	3.591704   
771.500000	3.594954   
772.000000	3.616356   
772.500000	3.607121   
773.000000	3.487931   
773.500000	3.420537   
774.000000	3.338462   
774.500000	3.232075   
775.000000	3.100098   
775.500000	3.134545   
776.000000	3.205810   
776.500000	3.268340   
777.000000	3.327174   
777.500000	3.505962   
778.000000	3.617310   
778.500000	3.455522   
779.000000	3.104484   
779.500000	2.840484   
780.000000	2.864992   
780.500000	3.067856   
781.000000	3.155287   
781.500000	3.080310   
782.000000	2.953143   
782.500000	2.917446   
783.000000	2.988090   
783.500000	3.080840   
784.000000	3.087696   
784.500000	3.008537   
785.000000	2.946484   
785.500000	3.005037   
786.000000	3.013143   
786.500000	2.913363   
787.000000	2.769772   
787.500000	2.811121   
788.000000	2.984833   
788.500000	3.081696   
789.000000	3.084992   
789.500000	2.953507   
790.000000	2.803742   
790.500000	2.568916   
791.000000	2.555000   
791.500000	2.657848   
792.000000	2.873712   
792.500000	2.966492   
793.000000	2.953886   
793.500000	2.857378   
794.000000	2.758189   
794.500000	2.631651   
795.000000	2.557053   
795.500000	2.527272   
796.000000	2.620674   
796.500000	2.597787   
797.000000	2.546969   
797.500000	2.427999   
798.000000	2.346590   
798.500000	2.256613   
799.000000	2.123431   
799.500000	2.018439   
800.000000	1.973954   
800.500000	2.005840   
801.000000	2.177696   
801.500000	2.330363   
802.000000	2.307295   
802.500000	2.103780   
803.000000	2.067939   
803.500000	2.139575   
804.000000	2.147696   
804.500000	1.953265   
805.000000	1.768765   
805.500000	1.917454   
806.000000	2.104446   
806.500000	2.295575   
807.000000	2.181113   
807.500000	1.954939   
808.000000	1.499181   
808.500000	1.380651   
809.000000	1.610962   
809.500000	2.039568   
810.000000	2.064106   
810.500000	1.766795   
811.000000	1.550606   
811.500000	1.632606   
812.000000	1.695590   
812.500000	1.664212   
813.000000	1.704439   
813.500000	1.803181   
814.000000	1.884484   
814.500000	1.734242   
815.000000	1.524439   
815.500000	1.303007   
816.000000	1.193136   
816.500000	1.233212   
817.000000	1.491371   
817.500000	1.793962   
818.000000	1.872560   
818.500000	1.792318   
819.000000	1.639606   
819.500000	1.769856   
820.000000	1.970893   
820.500000	2.047931   
821.000000	1.901780   
821.500000	1.924696   
822.000000	2.275893   
822.500000	2.469212   
823.000000	2.349962   
823.500000	2.048704   
824.000000	2.051757   
824.500000	2.221340   
825.000000	2.385174   
825.500000	2.370446   
826.000000	2.183590   
826.500000	2.005189   
827.000000	1.931151   
827.500000	2.035651   
828.000000	1.887446   
828.500000	1.805537   
829.000000	1.713174   
829.500000	1.742303   
830.000000	1.615007   
830.500000	1.516060   
831.000000	1.364378   
831.500000	1.175765   
832.000000	1.000106   
832.500000	1.021333   
833.000000	1.213265   
833.500000	1.356325   
834.000000	1.354871   
834.500000	1.176318   
835.000000	0.968825   
835.500000	0.926674   
836.000000	0.991712   
836.500000	1.068204   
837.000000	1.043984   
837.500000	0.960113   
838.000000	0.875007   
838.500000	0.714984   
839.000000	0.623030   
839.500000	0.609492   
840.000000	0.592765   
840.500000	0.404560   
841.000000	0.278295   
841.500000	0.406477   
842.000000	0.788106   
842.500000	1.023916   
843.000000	1.009674   
843.500000	0.839909   
844.000000	0.765856   
844.500000	0.577151   
845.000000	0.344825   
845.500000	0.164757   
846.000000	0.244856   
846.500000	0.291712   
847.000000	0.187545   
847.500000	0.087159   
848.000000	0.214386   
848.500000	0.378575   
849.000000	0.290833   
849.500000	0.143484   
850.000000	0.110810   
850.500000	0.133878   
851.000000	0.043363   
851.500000	-0.030848  
852.000000	0.029590   
852.500000	0.296037   
853.000000	0.428863   
853.500000	0.373727   
854.000000	0.140318   
854.500000	0.032946   
855.000000	0.046151   
855.500000	0.144462   
856.000000	0.204348   
856.500000	0.232568   
857.000000	0.220901   
857.500000	0.106734   
858.000000	0.018810   
858.500000	-0.041007  
859.000000	0.014757   
859.500000	0.112810   
860.000000	0.200500   
860.500000	0.143856   
861.000000	0.035537   
861.500000	-0.000939  
862.000000	0.118212   
862.500000	0.089704   
863.000000	-0.049553  
863.500000	-0.195719  
864.000000	-0.145181  
864.500000	-0.023484  
865.000000	0.097189   
865.500000	0.107712   
866.000000	0.097681   
866.500000	0.010393   
867.000000	-0.068204  
867.500000	-0.075431  
868.000000	0.000212   
868.500000	0.018280   
869.000000	-0.019522  
869.500000	-0.097689  
870.000000	-0.076992  
870.500000	0.000840   
871.000000	0.027212   
871.500000	-0.078340  
872.000000	-0.236795  
872.500000	-0.253348  
873.000000	-0.161545  
873.500000	-0.062098  
874.000000	-0.076409  
874.500000	-0.034530  
875.000000	0.031522   
875.500000	0.067015   
876.000000	-0.070537  
876.500000	-0.210409  
877.000000	-0.286659  
877.500000	-0.184272  
878.000000	-0.054621  
878.500000	0.070992   
879.000000	0.138795   
879.500000	0.139719   
880.000000	0.064916   
880.500000	0.070696   
881.000000	0.158280   
881.500000	0.221068   
882.000000	0.080954   
882.500000	-0.098454  
883.000000	-0.146977  
883.500000	-0.062431  
884.000000	-0.056166  
884.500000	-0.092522  
885.000000	-0.096212  
885.500000	-0.011098  
886.000000	0.064310   
886.500000	0.076469   
887.000000	0.040098   
887.500000	0.017098   
888.000000	-0.011045  
888.500000	0.034166   
889.000000	0.100515   
889.500000	0.087431   
890.000000	-0.060196  
890.500000	-0.196234  
891.000000	-0.243363  
891.500000	-0.208689  
892.000000	-0.226878  
892.500000	-0.224568  
893.000000	-0.152734  
893.500000	-0.040227  
894.000000	-0.026166  
894.500000	0.030446   
895.000000	0.106848   
895.500000	0.190265   
896.000000	0.109810   
896.500000	0.006674   
897.000000	-0.060568  
897.500000	-0.021356  
898.000000	-0.005022  
898.500000	-0.080553  
899.000000	-0.227522  
899.500000	-0.241787  
900.000000	0.124409   
900.500000	0.871000   

