PE FL                   SPECTRUM    ASCII       PEDS        1.60        
  -1
S12R#24.SP
24/04/15
16:12:28.00
24/04/15
16:13:54.00
Jan

900.500000
1









LS55
405.00
5.00
5.00
SCAN
1
20
100
100
0
400
0
1
0
1
5
ON
900 405 
1 0 0
#HDR
-1
-1
#GR
NM

0.00002384185791015625
0.0
450.000000
0.500000
902
8
176.833704
-0.433537
#DATA
450.000000	-0.033000  
450.500000	-0.337272  
451.000000	-0.325962  
451.500000	-0.093545  
452.000000	0.004681   
452.500000	0.000219   
453.000000	-0.069977  
453.500000	-0.060340  
454.000000	-0.196507  
454.500000	-0.293522  
455.000000	-0.319363  
455.500000	-0.143787  
456.000000	-0.017348  
456.500000	-0.007636  
457.000000	-0.167446  
457.500000	-0.277227  
458.000000	-0.265643  
458.500000	-0.160598  
459.000000	-0.136651  
459.500000	-0.149734  
460.000000	-0.129969  
460.500000	-0.043840  
461.000000	-0.018181  
461.500000	-0.056871  
462.000000	-0.233113  
462.500000	-0.232106  
463.000000	-0.113568  
463.500000	0.071045   
464.000000	-0.053386  
464.500000	-0.240318  
465.000000	-0.308416  
465.500000	-0.142575  
466.000000	0.020310   
466.500000	0.161174   
467.000000	0.295613   
467.500000	0.259174   
468.000000	0.105348   
468.500000	-0.210128  
469.000000	-0.360348  
469.500000	-0.433537  
470.000000	-0.358840  
470.500000	-0.200424  
471.000000	0.025469   
471.500000	0.166606   
472.000000	0.173742   
472.500000	0.165227   
473.000000	0.163651   
473.500000	0.116545   
474.000000	-0.029022  
474.500000	-0.115651  
475.000000	0.022166   
475.500000	0.119378   
476.000000	0.125484   
476.500000	0.086022   
477.000000	0.206787   
477.500000	0.300704   
478.000000	0.307007   
478.500000	0.089196   
479.000000	-0.069734  
479.500000	-0.080492  
480.000000	0.034053   
480.500000	0.045909   
481.000000	-0.127863  
481.500000	-0.255681  
482.000000	-0.238575  
482.500000	-0.090727  
483.000000	-0.052545  
483.500000	0.042469   
484.000000	-0.001219  
484.500000	0.139909   
485.000000	0.168477   
485.500000	0.182727   
486.000000	-0.008227  
486.500000	-0.060356  
487.000000	-0.054143  
487.500000	0.075803   
488.000000	0.039022   
488.500000	0.023340   
489.000000	0.025500   
489.500000	0.074166   
490.000000	0.129795   
490.500000	0.163772   
491.000000	0.189431   
491.500000	0.229848   
492.000000	0.234143   
492.500000	0.196348   
493.000000	0.172068   
493.500000	0.132121   
494.000000	0.012500   
494.500000	0.010772   
495.000000	0.097378   
495.500000	0.264022   
496.000000	0.252159   
496.500000	0.223204   
497.000000	0.246462   
497.500000	0.368401   
498.000000	0.447159   
498.500000	0.548325   
499.000000	0.750666   
499.500000	0.912636   
500.000000	0.910674   
500.500000	0.577378   
501.000000	0.331954   
501.500000	0.327242   
502.000000	0.684386   
502.500000	1.066265   
503.000000	1.252356   
503.500000	1.163075   
504.000000	1.033765   
504.500000	0.982356   
505.000000	0.961454   
505.500000	1.009598   
506.000000	1.057121   
506.500000	1.271628   
507.000000	1.533522   
507.500000	1.863757   
508.000000	2.136030   
508.500000	2.323545   
509.000000	2.456856   
509.500000	2.606227   
510.000000	2.680734   
510.500000	2.499356   
511.000000	2.364250   
511.500000	2.401500   
512.000000	2.705893   
512.500000	2.671992   
513.000000	2.534045   
513.500000	2.345893   
514.000000	2.497363   
514.500000	2.697621   
515.000000	3.124833   
515.500000	3.351750   
516.000000	3.445303   
516.500000	3.361734   
517.000000	3.508606   
517.500000	3.694621   
518.000000	3.825257   
518.500000	3.763484   
519.000000	3.634696   
519.500000	3.390598   
520.000000	3.219856   
520.500000	3.278537   
521.000000	3.486431   
521.500000	3.646962   
522.000000	3.626659   
522.500000	3.572606   
523.000000	3.582500   
523.500000	3.616696   
524.000000	3.465295   
524.500000	3.415340   
525.000000	3.814371   
525.500000	4.487143   
526.000000	4.764068   
526.500000	4.700462   
527.000000	4.539174   
527.500000	4.554560   
528.000000	4.648196   
528.500000	4.797484   
529.000000	4.983590   
529.500000	5.168098   
530.000000	5.297727   
530.500000	5.186363   
531.000000	5.262810   
531.500000	5.610590   
532.000000	6.171090   
532.500000	6.379386   
533.000000	6.575106   
533.500000	7.055780   
534.000000	7.412606   
534.500000	7.569507   
535.000000	7.653515   
535.500000	8.071462   
536.000000	8.161303   
536.500000	8.254166   
537.000000	8.586628   
537.500000	9.311545   
538.000000	10.113954  
538.500000	11.085893  
539.000000	12.252924  
539.500000	12.963515  
540.000000	13.201356  
540.500000	13.201795  
541.000000	13.366500  
541.500000	13.550295  
542.000000	13.458363  
542.500000	13.459621  
543.000000	13.492303  
543.500000	13.544371  
544.000000	12.937174  
544.500000	12.116909  
545.000000	11.276598  
545.500000	10.900939  
546.000000	10.631962  
546.500000	10.437295  
547.000000	10.114515  
547.500000	9.547666   
548.000000	8.682333   
548.500000	7.893106   
549.000000	7.375575   
549.500000	6.981946   
550.000000	6.433969   
550.500000	5.629522   
551.000000	4.732227   
551.500000	4.061621   
552.000000	3.722174   
552.500000	3.673787   
553.000000	3.577689   
553.500000	3.476181   
554.000000	3.335356   
554.500000	3.471878   
555.000000	3.458818   
555.500000	3.400295   
556.000000	3.181969   
556.500000	3.138621   
557.000000	3.162992   
557.500000	3.308280   
558.000000	3.448000   
558.500000	3.531643   
559.000000	3.415916   
559.500000	3.142007   
560.000000	3.013681   
560.500000	3.042106   
561.000000	3.154696   
561.500000	3.243863   
562.000000	3.296174   
562.500000	3.376022   
563.000000	3.386863   
563.500000	3.261537   
564.000000	2.967560   
564.500000	2.986848   
565.000000	3.192909   
565.500000	3.437393   
566.000000	3.194545   
566.500000	2.970272   
567.000000	2.875393   
567.500000	3.219166   
568.000000	3.540750   
568.500000	3.686030   
569.000000	3.512734   
569.500000	3.340098   
570.000000	3.350378   
570.500000	3.438318   
571.000000	3.393666   
571.500000	3.250712   
572.000000	3.199689   
572.500000	3.270606   
573.000000	3.223674   
573.500000	3.091189   
574.000000	2.984477   
574.500000	3.107719   
575.000000	3.325992   
575.500000	3.391371   
576.000000	3.323378   
576.500000	3.351113   
577.000000	3.539643   
577.500000	3.596060   
578.000000	3.482803   
578.500000	3.328310   
579.000000	3.337363   
579.500000	3.431068   
580.000000	3.487136   
580.500000	3.484340   
581.000000	3.517810   
581.500000	3.477909   
582.000000	3.305924   
582.500000	3.185674   
583.000000	3.281454   
583.500000	3.497174   
584.000000	3.744250   
584.500000	3.764522   
585.000000	3.617000   
585.500000	3.436719   
586.000000	3.497045   
586.500000	3.890515   
587.000000	4.225666   
587.500000	4.062136   
588.000000	3.536651   
588.500000	3.280530   
589.000000	3.340568   
589.500000	3.663924   
590.000000	3.892325   
590.500000	4.062257   
591.000000	4.128689   
591.500000	4.000060   
592.000000	4.045386   
592.500000	4.158159   
593.000000	4.430689   
593.500000	4.475537   
594.000000	4.682371   
594.500000	4.721765   
595.000000	4.807689   
595.500000	4.974295   
596.000000	5.194734   
596.500000	5.204280   
597.000000	4.998287   
597.500000	5.110916   
598.000000	5.297257   
598.500000	5.509689   
599.000000	5.565515   
599.500000	5.751212   
600.000000	5.692121   
600.500000	5.512007   
601.000000	5.496507   
601.500000	5.722787   
602.000000	5.891628   
602.500000	6.005272   
603.000000	6.212939   
603.500000	6.292242   
604.000000	6.151757   
604.500000	6.175181   
605.000000	6.428696   
605.500000	6.741651   
606.000000	6.952265   
606.500000	7.052045   
607.000000	7.152363   
607.500000	7.215106   
608.000000	7.448060   
608.500000	7.685628   
609.000000	7.883962   
609.500000	8.018250   
610.000000	8.463712   
610.500000	9.025840   
611.000000	9.629333   
611.500000	10.087333  
612.000000	10.423424  
612.500000	10.458378  
613.000000	10.529598  
613.500000	10.770234  
614.000000	11.571106  
614.500000	12.049651  
615.000000	12.219128  
615.500000	12.147446  
616.000000	12.508810  
616.500000	13.164272  
617.000000	13.809272  
617.500000	14.192666  
618.000000	14.022969  
618.500000	13.922734  
619.000000	14.585068  
619.500000	16.117583  
620.000000	17.299742  
620.500000	17.860318  
621.000000	18.373916  
621.500000	19.163265  
622.000000	19.579348  
622.500000	19.983333  
623.000000	20.960333  
623.500000	22.363340  
624.000000	23.116136  
624.500000	23.175719  
625.000000	23.425174  
625.500000	24.235515  
626.000000	24.991348  
626.500000	25.372143  
627.000000	25.934825  
627.500000	26.888280  
628.000000	28.803121  
628.500000	30.317568  
629.000000	31.552159  
629.500000	32.108242  
630.000000	33.351348  
630.500000	35.048060  
631.000000	37.168083  
631.500000	38.285583  
632.000000	38.510734  
632.500000	38.518007  
633.000000	38.969598  
633.500000	40.649628  
634.000000	42.915227  
634.500000	45.336212  
635.000000	47.159840  
635.500000	48.840060  
636.000000	50.542833  
636.500000	52.158704  
637.000000	53.758590  
637.500000	55.520893  
638.000000	57.776212  
638.500000	59.195234  
639.000000	59.647696  
639.500000	60.155174  
640.000000	61.962424  
640.500000	64.556401  
641.000000	67.375181  
641.500000	69.498553  
642.000000	70.766068  
642.500000	72.052696  
643.000000	73.730007  
643.500000	76.189674  
644.000000	78.728378  
644.500000	81.369810  
645.000000	83.530893  
645.500000	85.548242  
646.000000	87.248022  
646.500000	89.575030  
647.000000	91.981204  
647.500000	94.765651  
648.000000	97.299363  
648.500000	99.613106  
649.000000	100.977310 
649.500000	102.616848 
650.000000	104.880318 
650.500000	107.532992 
651.000000	109.635522 
651.500000	111.790909 
652.000000	114.077863 
652.500000	116.062946 
653.000000	117.611227 
653.500000	119.293257 
654.000000	121.675924 
654.500000	124.901113 
655.000000	127.643613 
655.500000	129.841310 
656.000000	131.412871 
656.500000	133.893333 
657.000000	136.554734 
657.500000	138.727537 
658.000000	139.162560 
658.500000	139.713825 
659.000000	141.251681 
659.500000	143.859075 
660.000000	146.429515 
660.500000	148.639060 
661.000000	151.128780 
661.500000	153.390492 
662.000000	155.044166 
662.500000	156.244553 
663.000000	157.829409 
663.500000	158.989803 
664.000000	159.600295 
664.500000	160.588037 
665.000000	162.769772 
665.500000	165.016946 
666.000000	165.456871 
666.500000	165.137431 
667.000000	165.471530 
667.500000	167.441606 
668.000000	170.431901 
668.500000	173.110318 
669.000000	173.981090 
669.500000	173.129871 
670.000000	172.618886 
670.500000	174.213575 
671.000000	176.194500 
671.500000	176.412340 
672.000000	174.941681 
672.500000	174.862946 
673.000000	175.955257 
673.500000	176.833704 
674.000000	176.065954 
674.500000	174.871840 
675.000000	174.469272 
675.500000	174.488719 
676.000000	174.816840 
676.500000	173.914075 
677.000000	173.517674 
677.500000	173.419431 
678.000000	174.007363 
678.500000	172.754500 
679.000000	170.740636 
679.500000	169.164977 
680.000000	169.434530 
680.500000	168.693871 
681.000000	166.735030 
681.500000	164.613833 
682.000000	163.911530 
682.500000	162.402787 
683.000000	160.079818 
683.500000	157.083121 
684.000000	154.653651 
684.500000	152.849674 
685.000000	151.873659 
685.500000	151.831015 
686.000000	150.983553 
686.500000	148.092295 
687.000000	143.681712 
687.500000	138.978000 
688.000000	134.454984 
688.500000	131.087810 
689.000000	129.316719 
689.500000	127.765772 
690.000000	125.233446 
690.500000	122.104128 
691.000000	119.845598 
691.500000	119.331196 
692.000000	117.934507 
692.500000	114.973969 
693.000000	110.841196 
693.500000	108.572537 
694.000000	106.451159 
694.500000	103.962234 
695.000000	100.266174 
695.500000	97.733393  
696.000000	95.383810  
696.500000	93.398742  
697.000000	90.749545  
697.500000	88.115363  
698.000000	84.727507  
698.500000	80.828174  
699.000000	77.881946  
699.500000	76.155916  
700.000000	75.103484  
700.500000	73.108628  
701.000000	70.462825  
701.500000	67.552863  
702.000000	66.301242  
702.500000	64.843946  
703.000000	62.931469  
703.500000	60.547583  
704.000000	59.197507  
704.500000	57.569348  
705.000000	55.387068  
705.500000	52.381083  
706.000000	50.541053  
706.500000	49.547386  
707.000000	49.259075  
707.500000	48.486068  
708.000000	47.103424  
708.500000	45.028613  
709.000000	43.144303  
709.500000	41.811893  
710.000000	41.236477  
710.500000	40.281098  
711.000000	38.589856  
711.500000	36.730204  
712.000000	35.738886  
712.500000	35.682901  
713.000000	35.826939  
713.500000	35.328333  
714.000000	33.864469  
714.500000	31.997787  
715.000000	30.779780  
715.500000	30.524946  
716.000000	30.232128  
716.500000	28.932333  
717.000000	27.198318  
717.500000	25.888772  
718.000000	25.027166  
718.500000	24.495992  
719.000000	24.169234  
719.500000	24.229863  
720.000000	24.244757  
720.500000	23.618772  
721.000000	22.308537  
721.500000	21.179969  
722.000000	20.744174  
722.500000	20.434931  
723.000000	20.138901  
723.500000	19.524386  
724.000000	19.090742  
724.500000	18.524719  
725.000000	17.986727  
725.500000	17.601689  
726.000000	17.472113  
726.500000	17.448128  
727.000000	17.092977  
727.500000	16.565469  
728.000000	15.601810  
728.500000	14.684530  
729.000000	13.912560  
729.500000	13.627030  
730.000000	13.253340  
730.500000	12.804333  
731.000000	12.544242  
731.500000	12.738386  
732.000000	12.884272  
732.500000	12.440719  
733.000000	11.704212  
733.500000	11.078818  
734.000000	11.055545  
734.500000	10.968106  
735.000000	10.707931  
735.500000	10.242681  
736.000000	10.104462  
736.500000	9.776060   
737.000000	9.482045   
737.500000	9.277810   
738.000000	9.523712   
738.500000	9.375484   
739.000000	9.063992   
739.500000	8.779371   
740.000000	8.861113   
740.500000	8.575454   
741.000000	8.166999   
741.500000	7.821159   
742.000000	7.971416   
742.500000	8.237560   
743.000000	8.273030   
743.500000	7.945863   
744.000000	7.305750   
744.500000	6.954530   
745.000000	6.900378   
745.500000	7.032863   
746.000000	7.033242   
746.500000	6.980196   
747.000000	6.928242   
747.500000	7.016598   
748.000000	6.928098   
748.500000	6.761204   
749.000000	6.636068   
749.500000	6.627863   
750.000000	6.461234   
750.500000	6.362333   
751.000000	6.168636   
751.500000	6.113856   
752.000000	5.850848   
752.500000	5.550946   
753.000000	5.309598   
753.500000	5.286651   
754.000000	5.298553   
754.500000	5.173515   
755.000000	4.893393   
755.500000	4.689606   
756.000000	4.794590   
756.500000	5.029977   
757.000000	5.118424   
757.500000	5.092969   
758.000000	5.040189   
758.500000	4.843553   
759.000000	4.426810   
759.500000	3.903613   
760.000000	3.806848   
760.500000	4.125075   
761.000000	4.503090   
761.500000	4.478613   
762.000000	4.315022   
762.500000	4.200219   
763.000000	4.303037   
763.500000	4.440939   
764.000000	4.504106   
764.500000	4.206840   
765.000000	3.857545   
765.500000	3.747121   
766.000000	4.046227   
766.500000	4.281583   
767.000000	4.261833   
767.500000	3.979068   
768.000000	3.671727   
768.500000	3.487962   
769.000000	3.483507   
769.500000	3.586492   
770.000000	3.556030   
770.500000	3.428439   
771.000000	3.284787   
771.500000	3.254492   
772.000000	3.350863   
772.500000	3.355151   
773.000000	3.268007   
773.500000	3.075053   
774.000000	3.178659   
774.500000	3.286515   
775.000000	3.335946   
775.500000	3.108257   
776.000000	3.041159   
776.500000	3.119598   
777.000000	3.272712   
777.500000	3.259007   
778.000000	3.203295   
778.500000	3.188553   
779.000000	3.184946   
779.500000	3.083924   
780.000000	2.945462   
780.500000	2.938750   
781.000000	3.086712   
781.500000	3.094575   
782.000000	2.970371   
782.500000	2.734560   
783.000000	2.637946   
783.500000	2.640196   
784.000000	2.765424   
784.500000	2.841219   
785.000000	2.926462   
785.500000	2.868560   
786.000000	2.808734   
786.500000	2.793515   
787.000000	2.838136   
787.500000	2.815954   
788.000000	2.732022   
788.500000	2.705939   
789.000000	2.711136   
789.500000	2.672545   
790.000000	2.540287   
790.500000	2.602856   
791.000000	2.754825   
791.500000	2.893431   
792.000000	2.820333   
792.500000	2.717151   
793.000000	2.595037   
793.500000	2.593303   
794.000000	2.542765   
794.500000	2.493000   
795.000000	2.452446   
795.500000	2.454015   
796.000000	2.309181   
796.500000	2.107856   
797.000000	2.080871   
797.500000	2.308303   
798.000000	2.433742   
798.500000	2.413871   
799.000000	2.402477   
799.500000	2.529780   
800.000000	2.376727   
800.500000	2.148045   
801.000000	2.021856   
801.500000	2.074007   
802.000000	1.942060   
802.500000	1.784689   
803.000000	1.686159   
803.500000	1.807409   
804.000000	1.969431   
804.500000	2.120795   
805.000000	2.176560   
805.500000	1.985242   
806.000000	1.719393   
806.500000	1.602469   
807.000000	1.681356   
807.500000	1.787333   
808.000000	1.908598   
808.500000	2.045833   
809.000000	2.123037   
809.500000	1.983568   
810.000000	1.709500   
810.500000	1.360196   
811.000000	1.211045   
811.500000	1.253325   
812.000000	1.658310   
812.500000	1.787992   
813.000000	1.696810   
813.500000	1.406772   
814.000000	1.449310   
814.500000	1.386272   
815.000000	1.237113   
815.500000	1.023219   
816.000000	1.153386   
816.500000	1.360878   
817.000000	1.505560   
817.500000	1.476621   
818.000000	1.535651   
818.500000	1.697166   
819.000000	1.997803   
819.500000	2.157090   
820.000000	2.159454   
820.500000	1.982303   
821.000000	1.900128   
821.500000	1.943204   
822.000000	2.165053   
822.500000	2.359530   
823.000000	2.483409   
823.500000	2.449272   
824.000000	2.402310   
824.500000	2.355477   
825.000000	2.324303   
825.500000	2.220030   
826.000000	2.092719   
826.500000	1.961583   
827.000000	1.930083   
827.500000	1.933030   
828.000000	1.964606   
828.500000	1.851636   
829.000000	1.744045   
829.500000	1.645977   
830.000000	1.596780   
830.500000	1.272530   
831.000000	0.884462   
831.500000	0.597378   
832.000000	0.747765   
832.500000	1.059075   
833.000000	1.349484   
833.500000	1.331492   
834.000000	1.196583   
834.500000	1.069810   
835.000000	1.095159   
835.500000	1.175500   
836.000000	1.158803   
836.500000	1.023378   
837.000000	0.886962   
837.500000	0.907431   
838.000000	1.075931   
838.500000	1.118128   
839.000000	0.989840   
839.500000	0.790454   
840.000000	0.794901   
840.500000	0.776810   
841.000000	0.707886   
841.500000	0.520424   
842.000000	0.374856   
842.500000	0.264272   
843.000000	0.255204   
843.500000	0.351553   
844.000000	0.481568   
844.500000	0.610454   
845.000000	0.643462   
845.500000	0.596628   
846.000000	0.422863   
846.500000	0.275734   
847.000000	0.221454   
847.500000	0.231613   
848.000000	0.216121   
848.500000	0.198530   
849.000000	0.183500   
849.500000	0.089022   
850.000000	0.017651   
850.500000	0.085787   
851.000000	0.151037   
851.500000	0.114606   
852.000000	0.071643   
852.500000	0.088992   
853.000000	0.096257   
853.500000	0.072333   
854.000000	0.078045   
854.500000	0.164310   
855.000000	0.223492   
855.500000	0.179083   
856.000000	0.083416   
856.500000	-0.044598  
857.000000	-0.141674  
857.500000	-0.063878  
858.000000	0.088022   
858.500000	0.176181   
859.000000	0.149128   
859.500000	0.076363   
860.000000	0.066219   
860.500000	0.103166   
861.000000	0.193742   
861.500000	0.243325   
862.000000	0.324265   
862.500000	0.281651   
863.000000	0.208492   
863.500000	0.058151   
864.000000	-0.002628  
864.500000	-0.012696  
865.000000	-0.006878  
865.500000	-0.015856  
866.000000	-0.007424  
866.500000	0.077484   
867.000000	0.050151   
867.500000	-0.044318  
868.000000	-0.201901  
868.500000	-0.210303  
869.000000	-0.132356  
869.500000	0.042219   
870.000000	0.152886   
870.500000	0.116318   
871.000000	-0.004590  
871.500000	-0.123257  
872.000000	-0.158492  
872.500000	-0.150287  
873.000000	-0.156356  
873.500000	-0.150386  
874.000000	-0.127878  
874.500000	-0.116696  
875.000000	-0.128030  
875.500000	-0.089848  
876.000000	-0.009651  
876.500000	0.070424   
877.000000	0.029780   
877.500000	-0.063765  
878.000000	-0.095439  
878.500000	-0.070878  
879.000000	-0.025643  
879.500000	0.065712   
880.000000	0.158553   
880.500000	0.153916   
881.000000	0.156901   
881.500000	0.146530   
882.000000	0.175378   
882.500000	0.035825   
883.000000	-0.040803  
883.500000	-0.089196  
884.000000	-0.163492  
884.500000	-0.287136  
885.000000	-0.289378  
885.500000	-0.141333  
886.000000	-0.089977  
886.500000	-0.098325  
887.000000	-0.086969  
887.500000	-0.057977  
888.000000	-0.177378  
888.500000	-0.397234  
889.000000	-0.412196  
889.500000	-0.216416  
890.000000	0.066780   
890.500000	0.098621   
891.000000	-0.022651  
891.500000	-0.126750  
892.000000	-0.067674  
892.500000	0.027909   
893.000000	0.022068   
893.500000	-0.071750  
894.000000	-0.079886  
894.500000	-0.134727  
895.000000	-0.206643  
895.500000	-0.345621  
896.000000	-0.308333  
896.500000	-0.154181  
897.000000	0.060621   
897.500000	0.112712   
898.000000	0.067196   
898.500000	0.026916   
899.000000	0.057113   
899.500000	0.131030   
900.000000	0.043030   
900.500000	-0.202000  

