PE FL                   SPECTRUM    ASCII       PEDS        1.60        
  -1
S12R#62.SP
24/04/15
17:06:40.00
24/04/15
17:08:05.00
Jan

900.500000
1









LS55
405.00
5.00
5.00
SCAN
1
20
100
100
0
400
0
1
0
1
5
ON
900 405 
1 0 0
#HDR
-1
-1
#GR
NM

0.00002384185791015625
0.0
450.000000
0.500000
902
8
141.455462
-0.570689
#DATA
450.000000	-0.266000  
450.500000	-0.143416  
451.000000	-0.171560  
451.500000	-0.200371  
452.000000	-0.116287  
452.500000	-0.004416  
453.000000	-0.045477  
453.500000	-0.155128  
454.000000	-0.158462  
454.500000	-0.162469  
455.000000	-0.111212  
455.500000	-0.160583  
456.000000	-0.123212  
456.500000	-0.120522  
457.000000	-0.021742  
457.500000	-0.104916  
458.000000	-0.223037  
458.500000	-0.422386  
459.000000	-0.428734  
459.500000	-0.368537  
460.000000	-0.202583  
460.500000	-0.109280  
461.000000	-0.067507  
461.500000	-0.185318  
462.000000	-0.166212  
462.500000	-0.219242  
463.000000	-0.232537  
463.500000	-0.351924  
464.000000	-0.291787  
464.500000	-0.271613  
465.000000	-0.101401  
465.500000	-0.014204  
466.000000	0.207121   
466.500000	0.133295   
467.000000	-0.000007  
467.500000	-0.161325  
468.000000	-0.167848  
468.500000	-0.123840  
469.000000	-0.001545  
469.500000	0.100780   
470.000000	0.146689   
470.500000	0.145962   
471.000000	0.117325   
471.500000	0.042810   
472.000000	-0.167356  
472.500000	-0.427992  
473.000000	-0.570689  
473.500000	-0.486871  
474.000000	-0.171856  
474.500000	0.004659   
475.000000	-0.074128  
475.500000	-0.223621  
476.000000	-0.226734  
476.500000	-0.163969  
477.000000	-0.172257  
477.500000	-0.173128  
478.000000	-0.211219  
478.500000	-0.299454  
479.000000	-0.306159  
479.500000	-0.044901  
480.000000	0.185484   
480.500000	0.048530   
481.000000	-0.218106  
481.500000	-0.336613  
482.000000	-0.133621  
482.500000	-0.003492  
483.000000	0.009446   
483.500000	-0.093537  
484.000000	-0.113045  
484.500000	-0.102446  
485.000000	-0.089659  
485.500000	-0.059363  
486.000000	0.029356   
486.500000	0.133977   
487.000000	0.052530   
487.500000	-0.090136  
488.000000	-0.239969  
488.500000	-0.194787  
489.000000	-0.088212  
489.500000	0.072469   
490.000000	0.192439   
490.500000	0.189136   
491.000000	0.030742   
491.500000	-0.077068  
492.000000	-0.024772  
492.500000	0.031181   
493.000000	0.041242   
493.500000	0.052000   
494.000000	0.134424   
494.500000	0.199666   
495.000000	0.152818   
495.500000	0.226174   
496.000000	0.273583   
496.500000	0.362553   
497.000000	0.418696   
497.500000	0.598507   
498.000000	0.733787   
498.500000	0.820651   
499.000000	0.819962   
499.500000	0.814287   
500.000000	0.845621   
500.500000	0.941439   
501.000000	0.986075   
501.500000	0.976128   
502.000000	0.933734   
502.500000	0.945886   
503.000000	0.955840   
503.500000	1.023742   
504.000000	1.059280   
504.500000	1.075371   
505.000000	1.108090   
505.500000	1.173568   
506.000000	1.297128   
506.500000	1.380962   
507.000000	1.581628   
507.500000	1.723886   
508.000000	1.873113   
508.500000	2.047492   
509.000000	2.270803   
509.500000	2.314303   
510.000000	2.249643   
510.500000	2.366492   
511.000000	2.623856   
511.500000	2.821621   
512.000000	2.602128   
512.500000	2.381606   
513.000000	2.274219   
513.500000	2.484098   
514.000000	2.748613   
514.500000	2.865037   
515.000000	2.775166   
515.500000	2.717469   
516.000000	2.784371   
516.500000	2.838469   
517.000000	2.909878   
517.500000	2.990537   
518.000000	3.196196   
518.500000	3.313371   
519.000000	3.195530   
519.500000	3.052810   
520.000000	3.068757   
520.500000	3.218469   
521.000000	3.363143   
521.500000	3.602916   
522.000000	3.765750   
522.500000	3.907772   
523.000000	3.765159   
523.500000	3.574969   
524.000000	3.277674   
524.500000	3.128696   
525.000000	3.169530   
525.500000	3.502030   
526.000000	3.862454   
526.500000	4.171257   
527.000000	4.474568   
527.500000	4.723621   
528.000000	4.723371   
528.500000	4.647378   
529.000000	4.685818   
529.500000	4.893106   
530.000000	4.989151   
530.500000	4.989969   
531.000000	5.199727   
531.500000	5.825568   
532.000000	6.467522   
532.500000	6.633454   
533.000000	6.547681   
533.500000	6.641712   
534.000000	7.059810   
534.500000	7.323363   
535.000000	7.356189   
535.500000	7.780522   
536.000000	8.718242   
536.500000	9.318515   
537.000000	9.320287   
537.500000	9.286151   
538.000000	9.928287   
538.500000	10.785871  
539.000000	11.585946  
539.500000	12.014856  
540.000000	12.698477  
540.500000	13.109037  
541.000000	13.471803  
541.500000	13.527037  
542.000000	13.581242  
542.500000	13.695606  
543.000000	13.838000  
543.500000	13.529204  
544.000000	12.783272  
544.500000	12.212462  
545.000000	12.017121  
545.500000	11.845946  
546.000000	11.170681  
546.500000	10.156575  
547.000000	9.298174   
547.500000	8.401628   
548.000000	7.701439   
548.500000	7.156840   
549.000000	6.837825   
549.500000	6.240219   
550.000000	5.720719   
550.500000	5.205386   
551.000000	4.937250   
551.500000	4.581689   
552.000000	4.309575   
552.500000	4.072568   
553.000000	4.049515   
553.500000	3.983409   
554.000000	3.890083   
554.500000	3.581560   
555.000000	3.180659   
555.500000	2.974143   
556.000000	3.018893   
556.500000	3.095075   
557.000000	3.134886   
557.500000	3.127189   
558.000000	3.118386   
558.500000	3.226689   
559.000000	3.245681   
559.500000	3.271916   
560.000000	3.252530   
560.500000	3.242037   
561.000000	3.146462   
561.500000	3.008189   
562.000000	2.902272   
562.500000	2.946333   
563.000000	3.145606   
563.500000	3.318931   
564.000000	3.464530   
564.500000	3.508962   
565.000000	3.405712   
565.500000	3.228500   
566.000000	3.025075   
566.500000	2.960560   
567.000000	3.000666   
567.500000	3.099204   
568.000000	3.281318   
568.500000	3.384522   
569.000000	3.381530   
569.500000	3.156196   
570.000000	2.980803   
570.500000	2.978159   
571.000000	3.281393   
571.500000	3.525674   
572.000000	3.690848   
572.500000	3.550174   
573.000000	3.605401   
573.500000	3.737045   
574.000000	3.986515   
574.500000	3.835378   
575.000000	3.639022   
575.500000	3.359257   
576.000000	3.383636   
576.500000	3.359522   
577.000000	3.368060   
577.500000	3.360931   
578.000000	3.348250   
578.500000	3.401787   
579.000000	3.527287   
579.500000	3.681037   
580.000000	3.602257   
580.500000	3.347090   
581.000000	3.090068   
581.500000	3.101583   
582.000000	3.350787   
582.500000	3.656727   
583.000000	3.895893   
583.500000	4.014924   
584.000000	3.978098   
584.500000	3.905674   
585.000000	3.818446   
585.500000	3.925068   
586.000000	3.982030   
586.500000	4.077628   
587.000000	3.933121   
587.500000	3.863121   
588.000000	3.727969   
588.500000	3.738007   
589.000000	3.848924   
589.500000	4.118590   
590.000000	4.431303   
590.500000	4.426825   
591.000000	4.237378   
591.500000	4.070916   
592.000000	4.203742   
592.500000	4.419575   
593.000000	4.589499   
593.500000	4.688772   
594.000000	4.599174   
594.500000	4.418621   
595.000000	4.352469   
595.500000	4.651007   
596.000000	5.134325   
596.500000	5.647106   
597.000000	6.015681   
597.500000	6.082219   
598.000000	6.058643   
598.500000	6.072242   
599.000000	6.424530   
599.500000	6.688303   
600.000000	6.727568   
600.500000	6.670030   
601.000000	6.581401   
601.500000	6.538537   
602.000000	6.531151   
602.500000	6.947136   
603.000000	7.456939   
603.500000	7.767871   
604.000000	7.743325   
604.500000	7.808030   
605.000000	8.085545   
605.500000	8.366916   
606.000000	8.470969   
606.500000	8.517681   
607.000000	8.795030   
607.500000	9.231166   
608.000000	9.722053   
608.500000	10.348325  
609.000000	11.005401  
609.500000	11.457015  
610.000000	11.507348  
610.500000	11.575098  
611.000000	12.010333  
611.500000	12.597340  
612.000000	12.973219  
612.500000	13.546393  
613.000000	14.202166  
613.500000	14.619901  
614.000000	14.500090  
614.500000	14.530325  
615.000000	15.143060  
615.500000	15.971946  
616.000000	16.506484  
616.500000	16.937984  
617.000000	17.807045  
617.500000	18.720939  
618.000000	19.703598  
618.500000	20.310196  
619.000000	20.948606  
619.500000	21.203780  
620.000000	21.437075  
620.500000	21.856659  
621.000000	22.897159  
621.500000	24.058386  
622.000000	25.094363  
622.500000	26.166780  
623.000000	27.273431  
623.500000	28.251696  
624.000000	28.571924  
624.500000	28.998833  
625.000000	29.766090  
625.500000	31.321356  
626.000000	32.813030  
626.500000	34.353954  
627.000000	35.501446  
627.500000	36.771636  
628.000000	37.590484  
628.500000	38.421272  
629.000000	38.878068  
629.500000	40.056946  
630.000000	41.384515  
630.500000	43.403333  
631.000000	45.027037  
631.500000	46.807325  
632.000000	47.853431  
632.500000	49.452598  
633.000000	50.949469  
633.500000	52.898795  
634.000000	54.128515  
634.500000	55.672924  
635.000000	57.149484  
635.500000	58.751583  
636.000000	59.489712  
636.500000	60.579825  
637.000000	62.321969  
637.500000	64.475446  
638.000000	65.874106  
638.500000	67.473583  
639.000000	69.635803  
639.500000	72.032454  
640.000000	74.136310  
640.500000	76.403333  
641.000000	78.640143  
641.500000	80.142977  
642.000000	81.046469  
642.500000	82.735954  
643.000000	85.389863  
643.500000	88.014068  
644.000000	90.115893  
644.500000	91.645598  
645.000000	92.330272  
645.500000	92.912780  
646.000000	93.790401  
646.500000	95.342606  
647.000000	97.472204  
647.500000	100.247780 
648.000000	102.769727 
648.500000	104.857962 
649.000000	106.698189 
649.500000	108.563128 
650.000000	110.013628 
650.500000	111.140166 
651.000000	112.756030 
651.500000	114.313090 
652.000000	115.096931 
652.500000	115.769477 
653.000000	116.959893 
653.500000	118.451871 
654.000000	119.572878 
654.500000	120.968265 
655.000000	122.709265 
655.500000	124.916083 
656.000000	126.750969 
656.500000	127.855015 
657.000000	128.517893 
657.500000	129.027689 
658.000000	130.039750 
658.500000	130.912265 
659.000000	132.243825 
659.500000	133.477583 
660.000000	135.428939 
660.500000	135.200515 
661.000000	134.137272 
661.500000	132.750871 
662.000000	134.011522 
662.500000	136.099022 
663.000000	137.515545 
663.500000	137.143803 
664.000000	138.303962 
664.500000	140.296962 
665.000000	141.448477 
665.500000	140.585984 
666.000000	139.971674 
666.500000	139.846757 
667.000000	140.194303 
667.500000	139.938590 
668.000000	140.004212 
668.500000	141.025212 
669.000000	141.455462 
669.500000	140.584787 
670.000000	138.025363 
670.500000	136.670401 
671.000000	136.305030 
671.500000	136.803098 
672.000000	135.177750 
672.500000	133.248750 
673.000000	131.847393 
673.500000	131.804022 
674.000000	132.110969 
674.500000	132.016984 
675.000000	131.254636 
675.500000	130.098772 
676.000000	128.747575 
676.500000	126.849537 
677.000000	125.044750 
677.500000	122.866727 
678.000000	120.823712 
678.500000	118.314287 
679.000000	116.401636 
679.500000	114.779318 
680.000000	112.519348 
680.500000	109.618356 
681.000000	107.208136 
681.500000	106.033212 
682.000000	104.864469 
682.500000	103.531242 
683.000000	101.957446 
683.500000	99.870606  
684.000000	96.994265  
684.500000	94.085734  
685.000000	92.699598  
685.500000	91.601515  
686.000000	89.769340  
686.500000	86.319893  
687.000000	82.957015  
687.500000	80.467696  
688.000000	78.201340  
688.500000	76.555303  
689.000000	75.052977  
689.500000	74.195007  
690.000000	72.115159  
690.500000	69.585712  
691.000000	66.889924  
691.500000	65.571742  
692.000000	64.174931  
692.500000	62.460083  
693.000000	60.060848  
693.500000	58.059931  
694.000000	56.783257  
694.500000	56.280803  
695.000000	54.955500  
695.500000	53.020431  
696.000000	51.160575  
696.500000	49.504143  
697.000000	48.023204  
697.500000	46.366303  
698.000000	45.174363  
698.500000	43.781719  
699.000000	42.484901  
699.500000	41.048545  
700.000000	39.995946  
700.500000	38.749674  
701.000000	37.700992  
701.500000	36.643098  
702.000000	35.349136  
702.500000	33.940750  
703.000000	32.894007  
703.500000	31.977098  
704.000000	30.881416  
704.500000	29.464704  
705.000000	28.726371  
705.500000	28.578643  
706.000000	28.543916  
706.500000	27.632772  
707.000000	26.197848  
707.500000	25.039015  
708.000000	24.708265  
708.500000	24.587090  
709.000000	24.124810  
709.500000	23.491575  
710.000000	22.711446  
710.500000	22.172378  
711.000000	21.462439  
711.500000	20.849522  
712.000000	20.008363  
712.500000	19.537098  
713.000000	19.232590  
713.500000	19.268727  
714.000000	18.930371  
714.500000	18.284393  
715.000000	17.453651  
715.500000	16.902984  
716.000000	16.637098  
716.500000	15.954560  
717.000000	15.127515  
717.500000	14.685689  
718.000000	14.935924  
718.500000	14.973333  
719.000000	14.499803  
719.500000	13.965553  
720.000000	13.606689  
720.500000	13.426984  
721.000000	13.118613  
721.500000	12.962196  
722.000000	12.339840  
722.500000	11.706257  
723.000000	11.240787  
723.500000	11.333825  
724.000000	11.353643  
724.500000	11.132113  
725.000000	10.638674  
725.500000	10.379083  
726.000000	10.118560  
726.500000	9.903477   
727.000000	9.494757   
727.500000	9.120227   
728.000000	8.744378   
728.500000	8.774492   
729.000000	8.746833   
729.500000	8.657037   
730.000000	8.334916   
730.500000	8.348128   
731.000000	8.331583   
731.500000	8.265787   
732.000000	7.884689   
732.500000	7.973537   
733.000000	8.113212   
733.500000	8.033984   
734.000000	7.436212   
734.500000	7.203196   
735.000000	7.133053   
735.500000	7.100424   
736.000000	6.796871   
736.500000	6.802560   
737.000000	6.790303   
737.500000	6.644666   
738.000000	6.443871   
738.500000	6.335363   
739.000000	6.366856   
739.500000	6.182931   
740.000000	5.993090   
740.500000	5.881636   
741.000000	5.930143   
741.500000	6.018803   
742.000000	5.983174   
742.500000	5.991174   
743.000000	5.893765   
743.500000	5.956696   
744.000000	5.647242   
744.500000	5.515757   
745.000000	5.621931   
745.500000	5.917204   
746.000000	5.787015   
746.500000	5.288613   
747.000000	4.871234   
747.500000	4.752219   
748.000000	4.718371   
748.500000	4.444575   
749.000000	4.270848   
749.500000	4.178863   
750.000000	4.212325   
750.500000	4.245416   
751.000000	4.383643   
751.500000	4.405075   
752.000000	4.435613   
752.500000	4.406659   
753.000000	4.302856   
753.500000	3.989651   
754.000000	3.828181   
754.500000	3.847537   
755.000000	3.982340   
755.500000	3.962106   
756.000000	4.170340   
756.500000	4.219818   
757.000000	4.092075   
757.500000	3.644871   
758.000000	3.593916   
758.500000	3.795545   
759.000000	3.984265   
759.500000	3.875303   
760.000000	3.681037   
760.500000	3.512924   
761.000000	3.537954   
761.500000	3.739386   
762.000000	3.888840   
762.500000	3.740522   
763.000000	3.419257   
763.500000	3.202159   
764.000000	3.266765   
764.500000	3.267075   
765.000000	3.362590   
765.500000	3.526250   
766.000000	3.741590   
766.500000	3.672075   
767.000000	3.450227   
767.500000	3.248522   
768.000000	3.180318   
768.500000	3.068272   
769.000000	3.012636   
769.500000	3.134871   
770.000000	3.313522   
770.500000	3.304363   
771.000000	3.212250   
771.500000	3.188098   
772.000000	3.226174   
772.500000	3.078204   
773.000000	2.895333   
773.500000	2.835931   
774.000000	2.856636   
774.500000	2.884772   
775.000000	2.812257   
775.500000	2.837530   
776.000000	2.860704   
776.500000	3.042113   
777.000000	3.086075   
777.500000	3.079083   
778.000000	2.936219   
778.500000	3.090181   
779.000000	3.256643   
779.500000	3.283712   
780.000000	3.054045   
780.500000	2.946439   
781.000000	2.979113   
781.500000	3.096424   
782.000000	3.092810   
782.500000	3.036477   
783.000000	2.979348   
783.500000	2.901643   
784.000000	2.845295   
784.500000	2.755409   
785.000000	2.725484   
785.500000	2.731287   
786.000000	2.844848   
786.500000	2.823886   
787.000000	2.787628   
787.500000	2.653060   
788.000000	2.646734   
788.500000	2.440000   
789.000000	2.280196   
789.500000	2.186083   
790.000000	2.482499   
790.500000	2.647810   
791.000000	2.645166   
791.500000	2.402500   
792.000000	2.286189   
792.500000	2.301787   
793.000000	2.339030   
793.500000	2.376522   
794.000000	2.243037   
794.500000	2.063666   
795.000000	1.898333   
795.500000	2.087234   
796.000000	2.245469   
796.500000	2.363681   
797.000000	2.260234   
797.500000	2.246886   
798.000000	2.190007   
798.500000	2.137250   
799.000000	2.118924   
799.500000	2.214992   
800.000000	2.193537   
800.500000	2.166098   
801.000000	2.231060   
801.500000	2.372363   
802.000000	2.238280   
802.500000	2.055356   
803.000000	1.961500   
803.500000	2.073969   
804.000000	1.994477   
804.500000	1.789863   
805.000000	1.649840   
805.500000	1.676250   
806.000000	1.803651   
806.500000	1.985946   
807.000000	2.165825   
807.500000	2.078462   
808.000000	1.754886   
808.500000	1.640734   
809.000000	1.736924   
809.500000	1.842727   
810.000000	1.691257   
810.500000	1.713969   
811.000000	1.852265   
811.500000	1.947015   
812.000000	1.729962   
812.500000	1.463825   
813.000000	1.381893   
813.500000	1.510507   
814.000000	1.660825   
814.500000	1.718553   
815.000000	1.579469   
815.500000	1.388030   
816.000000	1.281340   
816.500000	1.368780   
817.000000	1.448893   
817.500000	1.493030   
818.000000	1.378553   
818.500000	1.469265   
819.000000	1.681515   
819.500000	1.789712   
820.000000	1.563704   
820.500000	1.452878   
821.000000	1.690348   
821.500000	2.145196   
822.000000	2.292280   
822.500000	2.298386   
823.000000	2.322318   
823.500000	2.477484   
824.000000	2.509219   
824.500000	2.345424   
825.000000	2.086098   
825.500000	1.858886   
826.000000	1.932204   
826.500000	2.125636   
827.000000	2.296871   
827.500000	2.254969   
828.000000	2.202575   
828.500000	2.189083   
829.000000	2.088174   
829.500000	1.852689   
830.000000	1.396772   
830.500000	1.214181   
831.000000	1.286742   
831.500000	1.488371   
832.000000	1.318348   
832.500000	1.073022   
833.000000	1.005810   
833.500000	1.136265   
834.000000	1.109053   
834.500000	0.928749   
835.000000	0.794537   
835.500000	0.806681   
836.000000	0.881977   
836.500000	1.007916   
837.000000	1.050681   
837.500000	0.954454   
838.000000	0.723924   
838.500000	0.518356   
839.000000	0.432439   
839.500000	0.446348   
840.000000	0.565772   
840.500000	0.709303   
841.000000	0.847196   
841.500000	0.872696   
842.000000	0.781462   
842.500000	0.628318   
843.000000	0.601446   
843.500000	0.757522   
844.000000	0.829333   
844.500000	0.746840   
845.000000	0.538348   
845.500000	0.478037   
846.000000	0.466212   
846.500000	0.444174   
847.000000	0.256045   
847.500000	0.052878   
848.000000	-0.105310  
848.500000	0.019999   
849.000000	0.204401   
849.500000	0.340477   
850.000000	0.258590   
850.500000	0.143068   
851.000000	0.072477   
851.500000	0.167113   
852.000000	0.253886   
852.500000	0.161583   
853.000000	-0.013810  
853.500000	-0.134984  
854.000000	-0.082439  
854.500000	0.103469   
855.000000	0.266409   
855.500000	0.292893   
856.000000	0.137219   
856.500000	-0.005810  
857.000000	-0.051303  
857.500000	0.060098   
858.000000	0.152492   
858.500000	0.167553   
859.000000	0.025628   
859.500000	-0.164893  
860.000000	-0.256333  
860.500000	-0.146681  
861.000000	0.006901   
861.500000	0.124151   
862.000000	0.057522   
862.500000	-0.053795  
863.000000	-0.151060  
863.500000	-0.099295  
864.000000	-0.016393  
864.500000	0.030727   
865.000000	0.015378   
865.500000	-0.011840  
866.000000	-0.024196  
866.500000	-0.099795  
867.000000	-0.118742  
867.500000	-0.108765  
868.000000	-0.091356  
868.500000	-0.180265  
869.000000	-0.171446  
869.500000	-0.070022  
870.000000	0.004333   
870.500000	-0.075257  
871.000000	-0.140454  
871.500000	-0.139325  
872.000000	-0.129946  
872.500000	-0.143613  
873.000000	-0.097219  
873.500000	-0.043446  
874.000000	-0.061825  
874.500000	-0.090151  
875.000000	-0.088439  
875.500000	-0.040303  
876.000000	-0.031833  
876.500000	0.036810   
877.000000	0.098886   
877.500000	0.145113   
878.000000	0.029318   
878.500000	0.041242   
879.000000	0.078999   
879.500000	0.141500   
880.000000	0.042681   
880.500000	-0.070022  
881.000000	-0.105325  
881.500000	-0.070984  
882.000000	-0.028477  
882.500000	-0.083962  
883.000000	-0.127984  
883.500000	-0.183606  
884.000000	-0.110583  
884.500000	-0.071462  
885.000000	-0.006348  
885.500000	-0.006553  
886.000000	-0.017901  
886.500000	0.001219   
887.000000	0.075348   
887.500000	0.110840   
888.000000	0.053871   
888.500000	-0.036575  
889.000000	-0.037424  
889.500000	0.021333   
890.000000	0.029196   
890.500000	-0.007189  
891.000000	-0.067356  
891.500000	-0.064174  
892.000000	-0.156704  
892.500000	-0.253431  
893.000000	-0.321810  
893.500000	-0.166181  
894.000000	-0.086553  
894.500000	0.017916   
895.000000	0.048901   
895.500000	0.144856   
896.000000	0.114265   
896.500000	0.027810   
897.000000	-0.068439  
897.500000	-0.113560  
898.000000	-0.166575  
898.500000	-0.185295  
899.000000	-0.118795  
899.500000	-0.005651  
900.000000	0.128340   
900.500000	0.230000   

