PE FL                   SPECTRUM    ASCII       PEDS        1.60        
  -1
S12R#64.SP
24/04/15
17:09:31.00
24/04/15
17:10:57.00
Jan

900.500000
1









LS55
405.00
5.00
5.00
SCAN
1
20
100
100
0
400
0
1
0
1
5
ON
900 405 
1 0 0
#HDR
-1
-1
#GR
NM

0.00002384185791015625
0.0
450.000000
0.500000
902
8
137.583871
-0.561015
#DATA
450.000000	0.031999   
450.500000	0.099454   
451.000000	0.252742   
451.500000	0.404863   
452.000000	0.320795   
452.500000	0.034136   
453.000000	-0.215325  
453.500000	-0.176954  
454.000000	-0.024946  
454.500000	0.076515   
455.000000	0.075189   
455.500000	-0.025113  
456.000000	-0.045166  
456.500000	0.040462   
457.000000	0.131159   
457.500000	0.086075   
458.000000	-0.177143  
458.500000	-0.249371  
459.000000	-0.138378  
459.500000	-0.025113  
460.000000	-0.187825  
460.500000	-0.264515  
461.000000	-0.205787  
461.500000	-0.072916  
462.000000	-0.178257  
462.500000	-0.274484  
463.000000	-0.186515  
463.500000	0.062030   
464.000000	0.092636   
464.500000	-0.084431  
465.000000	-0.335848  
465.500000	-0.317969  
466.000000	-0.233409  
466.500000	-0.137469  
467.000000	-0.331416  
467.500000	-0.505174  
468.000000	-0.561015  
468.500000	-0.257590  
469.000000	0.041833   
469.500000	0.212628   
470.000000	0.143962   
470.500000	0.127553   
471.000000	0.158015   
471.500000	0.086363   
472.000000	-0.013606  
472.500000	-0.043659  
473.000000	-0.070401  
473.500000	-0.213431  
474.000000	-0.256363  
474.500000	-0.030590  
475.000000	0.187371   
475.500000	0.133590   
476.000000	-0.154333  
476.500000	-0.221613  
477.000000	-0.068878  
477.500000	0.028628   
478.000000	-0.086053  
478.500000	-0.086689  
479.000000	0.135174   
479.500000	0.365674   
480.000000	0.235954   
480.500000	0.049636   
481.000000	-0.039666  
481.500000	0.065515   
482.000000	-0.086378  
482.500000	-0.168378  
483.000000	-0.203818  
483.500000	-0.067166  
484.000000	-0.092530  
484.500000	-0.055416  
485.000000	-0.027939  
485.500000	0.021416   
486.000000	-0.028212  
486.500000	-0.110977  
487.000000	-0.055621  
487.500000	0.058424   
488.000000	0.158712   
488.500000	0.071878   
489.000000	-0.083295  
489.500000	-0.311787  
490.000000	-0.312219  
490.500000	-0.184409  
491.000000	0.045045   
491.500000	0.211825   
492.000000	0.262121   
492.500000	0.164151   
493.000000	0.037666   
493.500000	-0.042545  
494.000000	-0.062386  
494.500000	-0.039568  
495.000000	0.036053   
495.500000	0.223795   
496.000000	0.376522   
496.500000	0.458000   
497.000000	0.413143   
497.500000	0.423803   
498.000000	0.444984   
498.500000	0.578484   
499.000000	0.627787   
499.500000	0.590780   
500.000000	0.525401   
500.500000	0.640871   
501.000000	0.793772   
501.500000	0.815719   
502.000000	0.732863   
502.500000	0.762500   
503.000000	0.906287   
503.500000	1.042810   
504.000000	1.114840   
504.500000	1.179143   
505.000000	1.266189   
505.500000	1.296348   
506.000000	1.233151   
506.500000	1.296939   
507.000000	1.589446   
507.500000	1.974659   
508.000000	2.092477   
508.500000	2.047818   
509.000000	1.891121   
509.500000	1.942621   
510.000000	2.103333   
510.500000	2.487045   
511.000000	2.723924   
511.500000	2.675704   
512.000000	2.534242   
512.500000	2.533553   
513.000000	2.656386   
513.500000	2.693674   
514.000000	2.764318   
514.500000	2.852765   
515.000000	3.043098   
515.500000	3.045598   
516.000000	3.108068   
516.500000	3.069196   
517.000000	3.146553   
517.500000	3.135787   
518.000000	3.310166   
518.500000	3.347939   
519.000000	3.363053   
519.500000	3.174628   
520.000000	3.040568   
520.500000	3.040280   
521.000000	3.082651   
521.500000	3.221689   
522.000000	3.435454   
522.500000	3.628484   
523.000000	3.638863   
523.500000	3.542992   
524.000000	3.542742   
524.500000	3.567765   
525.000000	3.507416   
525.500000	3.430318   
526.000000	3.888128   
526.500000	4.448878   
527.000000	4.691159   
527.500000	4.598553   
528.000000	4.670992   
528.500000	4.998037   
529.000000	5.384007   
529.500000	5.735666   
530.000000	6.008977   
530.500000	6.099492   
531.000000	5.769303   
531.500000	5.626507   
532.000000	5.789015   
532.500000	6.296325   
533.000000	6.714159   
533.500000	6.958704   
534.000000	7.022598   
534.500000	7.170606   
535.000000	7.566295   
535.500000	8.190143   
536.000000	8.782242   
536.500000	9.037757   
537.000000	9.158674   
537.500000	9.480515   
538.000000	9.967393   
538.500000	10.455613  
539.000000	10.984181  
539.500000	11.828083  
540.000000	12.810636  
540.500000	13.534977  
541.000000	14.004469  
541.500000	14.236780  
542.000000	14.138151  
542.500000	13.646795  
543.000000	13.311878  
543.500000	13.058128  
544.000000	12.833204  
544.500000	12.130537  
545.000000	11.638931  
545.500000	11.282007  
546.000000	11.005901  
546.500000	10.189628  
547.000000	9.282530   
547.500000	8.389803   
548.000000	7.696924   
548.500000	7.081507   
549.000000	6.692734   
549.500000	6.536848   
550.000000	6.255772   
550.500000	5.751545   
551.000000	5.157295   
551.500000	4.693075   
552.000000	4.346977   
552.500000	4.113651   
553.000000	4.020659   
553.500000	4.003280   
554.000000	3.898598   
554.500000	3.766606   
555.000000	3.607242   
555.500000	3.432825   
556.000000	3.180477   
556.500000	3.160280   
557.000000	3.252113   
557.500000	3.359537   
558.000000	3.224803   
558.500000	3.126409   
559.000000	3.065128   
559.500000	3.045371   
560.000000	2.969318   
560.500000	3.056356   
561.000000	3.246492   
561.500000	3.273234   
562.000000	3.055446   
562.500000	3.014977   
563.000000	3.179590   
563.500000	3.387825   
564.000000	3.357068   
564.500000	3.356598   
565.000000	3.443250   
565.500000	3.588568   
566.000000	3.499969   
566.500000	3.324621   
567.000000	3.191416   
567.500000	3.181015   
568.000000	3.241590   
568.500000	3.373439   
569.000000	3.388424   
569.500000	3.383977   
570.000000	3.179477   
570.500000	3.193613   
571.000000	3.330272   
571.500000	3.619234   
572.000000	3.542295   
572.500000	3.362628   
573.000000	3.158386   
573.500000	3.181810   
574.000000	3.227272   
574.500000	3.371022   
575.000000	3.458287   
575.500000	3.462643   
576.000000	3.344128   
576.500000	3.233242   
577.000000	3.116939   
577.500000	3.141234   
578.000000	3.286727   
578.500000	3.411242   
579.000000	3.362651   
579.500000	3.184196   
580.000000	3.081924   
580.500000	3.267234   
581.000000	3.557000   
581.500000	3.834090   
582.000000	3.883643   
582.500000	3.904075   
583.000000	3.882219   
583.500000	3.758106   
584.000000	3.430348   
584.500000	3.220128   
585.000000	3.386583   
585.500000	3.693484   
586.000000	4.091833   
586.500000	4.108371   
587.000000	3.966643   
587.500000	3.608280   
588.000000	3.664015   
588.500000	3.935303   
589.000000	4.351257   
589.500000	4.363666   
590.000000	4.277651   
590.500000	4.005075   
591.000000	3.674371   
591.500000	3.381674   
592.000000	3.590386   
592.500000	4.143772   
593.000000	4.719621   
593.500000	4.903310   
594.000000	4.932795   
594.500000	4.882984   
595.000000	4.799424   
595.500000	4.683416   
596.000000	4.781007   
596.500000	5.164446   
597.000000	5.538969   
597.500000	5.737128   
598.000000	5.800621   
598.500000	6.058249   
599.000000	6.134515   
599.500000	6.049946   
600.000000	6.038280   
600.500000	6.342924   
601.000000	6.596795   
601.500000	6.649863   
602.000000	6.651636   
602.500000	6.951227   
603.000000	7.125969   
603.500000	7.238484   
604.000000	7.315393   
604.500000	7.746159   
605.000000	8.285621   
605.500000	8.898356   
606.000000	9.211454   
606.500000	9.404613   
607.000000	9.478643   
607.500000	9.594280   
608.000000	9.568863   
608.500000	9.497416   
609.000000	9.532136   
609.500000	10.024212  
610.000000	10.755969  
610.500000	11.431393  
611.000000	11.628333  
611.500000	11.758128  
612.000000	12.096257  
612.500000	12.786136  
613.000000	13.540553  
613.500000	14.199893  
614.000000	14.450272  
614.500000	14.891727  
615.000000	15.421212  
615.500000	16.271704  
616.000000	16.786022  
616.500000	17.420272  
617.000000	18.056734  
617.500000	18.934500  
618.000000	19.599598  
618.500000	19.923515  
619.000000	19.971681  
619.500000	20.194060  
620.000000	21.253219  
620.500000	22.819492  
621.000000	24.213780  
621.500000	25.060348  
622.000000	25.606037  
622.500000	26.084143  
623.000000	26.688356  
623.500000	27.721772  
624.000000	28.777075  
624.500000	29.843893  
625.000000	30.627613  
625.500000	31.778628  
626.000000	32.295962  
626.500000	33.262280  
627.000000	34.118401  
627.500000	35.571000  
628.000000	36.451272  
628.500000	37.936454  
629.000000	39.566545  
629.500000	41.336174  
630.000000	42.456946  
630.500000	43.076401  
631.000000	44.279909  
631.500000	45.780106  
632.000000	47.350219  
632.500000	48.366848  
633.000000	49.550136  
633.500000	51.398446  
634.000000	53.823515  
634.500000	55.716999  
635.000000	56.693742  
635.500000	57.938325  
636.000000	60.166257  
636.500000	61.610500  
637.000000	62.433734  
637.500000	63.066242  
638.000000	65.218848  
638.500000	66.865575  
639.000000	68.592651  
639.500000	69.973196  
640.000000	72.628628  
640.500000	74.122522  
641.000000	75.692583  
641.500000	77.523393  
642.000000	80.451454  
642.500000	82.532227  
643.000000	83.942659  
643.500000	84.350765  
644.000000	85.162280  
644.500000	86.495598  
645.000000	88.638265  
645.500000	91.133356  
646.000000	93.264280  
646.500000	94.681901  
647.000000	95.320818  
647.500000	96.524098  
648.000000	98.851234  
648.500000	101.695916 
649.000000	103.624204 
649.500000	104.477780 
650.000000	105.657143 
650.500000	106.530719 
651.000000	107.846113 
651.500000	108.883863 
652.000000	111.063901 
652.500000	113.314189 
653.000000	115.106484 
653.500000	115.913590 
654.000000	116.034750 
654.500000	116.746090 
655.000000	117.956621 
655.500000	120.213924 
656.000000	121.744621 
656.500000	124.040303 
657.000000	125.776712 
657.500000	127.288310 
658.000000	126.992401 
658.500000	126.531386 
659.000000	126.642409 
659.500000	127.998803 
660.000000	128.807863 
660.500000	129.061196 
661.000000	129.350545 
661.500000	129.928196 
662.000000	130.435621 
662.500000	130.410500 
663.000000	131.475878 
663.500000	132.686931 
664.000000	133.400136 
664.500000	133.612803 
665.000000	134.876272 
665.500000	136.804628 
666.000000	137.583871 
666.500000	137.115340 
667.000000	136.042015 
667.500000	135.482878 
668.000000	134.388159 
668.500000	133.191522 
669.000000	132.009484 
669.500000	131.592628 
670.000000	131.812363 
670.500000	131.993712 
671.000000	131.593090 
671.500000	130.576727 
672.000000	129.374280 
672.500000	127.164765 
673.000000	125.547909 
673.500000	124.215856 
674.000000	123.783121 
674.500000	121.738583 
675.000000	119.909113 
675.500000	118.619772 
676.000000	118.865848 
676.500000	117.731318 
677.000000	116.433916 
677.500000	115.606810 
678.000000	115.386295 
678.500000	114.064477 
679.000000	111.461446 
679.500000	108.885871 
680.000000	106.712681 
680.500000	104.642128 
681.000000	102.020765 
681.500000	99.601015  
682.000000	97.774257  
682.500000	97.025045  
683.000000	95.899272  
683.500000	94.055499  
684.000000	91.125530  
684.500000	88.784469  
685.000000	86.299446  
685.500000	84.135840  
686.000000	82.142666  
686.500000	80.442219  
687.000000	78.231848  
687.500000	75.776151  
688.000000	74.151098  
688.500000	72.614030  
689.000000	70.857227  
689.500000	68.264962  
690.000000	66.647704  
690.500000	65.214613  
691.000000	63.476378  
691.500000	61.305901  
692.000000	59.983401  
692.500000	58.993333  
693.000000	57.255818  
693.500000	54.353257  
694.000000	52.033780  
694.500000	51.300780  
695.000000	50.932825  
695.500000	49.256325  
696.000000	46.803909  
696.500000	44.704174  
697.000000	43.397984  
697.500000	42.095295  
698.000000	40.334575  
698.500000	39.159219  
699.000000	38.498113  
699.500000	37.800924  
700.000000	36.561318  
700.500000	35.212795  
701.000000	34.170469  
701.500000	33.174871  
702.000000	32.649113  
702.500000	32.037628  
703.000000	31.424272  
703.500000	29.922356  
704.000000	28.522143  
704.500000	27.503287  
705.000000	27.139727  
705.500000	26.907795  
706.000000	26.316787  
706.500000	25.386015  
707.000000	24.080704  
707.500000	23.437015  
708.000000	23.236090  
708.500000	23.189787  
709.000000	22.688189  
709.500000	21.714340  
710.000000	20.932446  
710.500000	20.603136  
711.000000	20.296848  
711.500000	19.525053  
712.000000	18.784984  
712.500000	18.536606  
713.000000	18.656863  
713.500000	18.381189  
714.000000	17.502924  
714.500000	16.731106  
715.000000	16.092507  
715.500000	15.330871  
716.000000	14.409462  
716.500000	14.023409  
717.000000	13.942780  
717.500000	13.857818  
718.000000	13.299128  
718.500000	13.313719  
719.000000	13.707568  
719.500000	13.777522  
720.000000	12.963196  
720.500000	12.230484  
721.000000	12.119825  
721.500000	12.415378  
722.000000	12.308318  
722.500000	11.686969  
723.000000	11.060303  
723.500000	10.561469  
724.000000	10.494477  
724.500000	10.314689  
725.000000	10.001000  
725.500000	9.447340   
726.000000	9.489530   
726.500000	9.766674   
727.000000	10.121545  
727.500000	9.751363   
728.000000	9.096121   
728.500000	8.262659   
729.000000	7.882242   
729.500000	7.884946   
730.000000	8.011053   
730.500000	7.978901   
731.000000	7.783454   
731.500000	7.512984   
732.000000	7.208553   
732.500000	7.167484   
733.000000	7.368507   
733.500000	7.604992   
734.000000	7.496462   
734.500000	7.116068   
735.000000	6.877909   
735.500000	6.753363   
736.000000	6.763674   
736.500000	6.574583   
737.000000	6.382363   
737.500000	6.318651   
738.000000	6.346007   
738.500000	6.233454   
739.000000	6.036007   
739.500000	6.123871   
740.000000	6.382909   
740.500000	6.475590   
741.000000	6.131378   
741.500000	5.656621   
742.000000	5.427378   
742.500000	5.468886   
743.000000	5.549848   
743.500000	5.176128   
744.000000	4.981401   
744.500000	4.964560   
745.000000	5.218462   
745.500000	5.081712   
746.000000	4.983962   
746.500000	4.762689   
747.000000	4.697818   
747.500000	4.509977   
748.000000	4.556924   
748.500000	4.799606   
749.000000	5.007613   
749.500000	5.002795   
750.000000	4.825727   
750.500000	4.604704   
751.000000	4.341780   
751.500000	4.171750   
752.000000	4.088651   
752.500000	4.202734   
753.000000	4.318681   
753.500000	4.192159   
754.000000	3.866007   
754.500000	3.822643   
755.000000	4.079772   
755.500000	4.391227   
756.000000	4.276113   
756.500000	4.088666   
757.000000	4.029409   
757.500000	4.093242   
758.000000	3.936734   
758.500000	3.742280   
759.000000	3.671931   
759.500000	3.693143   
760.000000	3.556598   
760.500000	3.393212   
761.000000	3.332840   
761.500000	3.404424   
762.000000	3.526113   
762.500000	3.475121   
763.000000	3.458454   
763.500000	3.477143   
764.000000	3.636946   
764.500000	3.898143   
765.000000	4.120939   
765.500000	4.013530   
766.000000	3.713500   
766.500000	3.654015   
767.000000	3.839613   
767.500000	4.012734   
768.000000	3.715643   
768.500000	3.365924   
769.000000	3.238833   
769.500000	3.291530   
770.000000	3.313310   
770.500000	3.360810   
771.000000	3.341454   
771.500000	3.260022   
772.000000	3.112553   
772.500000	3.107901   
773.000000	3.166575   
773.500000	3.261242   
774.000000	3.156840   
774.500000	3.019568   
775.000000	2.940530   
775.500000	2.953469   
776.000000	2.965083   
776.500000	2.800636   
777.000000	2.647886   
777.500000	2.703325   
778.000000	2.959250   
778.500000	3.049984   
779.000000	2.920507   
779.500000	2.683053   
780.000000	2.587060   
780.500000	2.657363   
781.000000	2.810750   
781.500000	2.902424   
782.000000	2.830287   
782.500000	2.640477   
783.000000	2.422871   
783.500000	2.430909   
784.000000	2.499613   
784.500000	2.653121   
785.000000	2.692878   
785.500000	2.842287   
786.000000	2.775469   
786.500000	2.762340   
787.000000	2.616136   
787.500000	2.656795   
788.000000	2.700772   
788.500000	2.779022   
789.000000	2.632143   
789.500000	2.436242   
790.000000	2.275113   
790.500000	2.272000   
791.000000	2.272765   
791.500000	2.222893   
792.000000	2.267674   
792.500000	2.364659   
793.000000	2.530704   
793.500000	2.557128   
794.000000	2.523977   
794.500000	2.358840   
795.000000	2.343340   
795.500000	2.419234   
796.000000	2.421022   
796.500000	2.368530   
797.000000	2.243598   
797.500000	2.124446   
798.000000	1.993946   
798.500000	2.027174   
799.000000	2.092765   
799.500000	2.087250   
800.000000	1.947696   
800.500000	2.019204   
801.000000	2.210772   
801.500000	2.286030   
802.000000	2.129590   
802.500000	1.930628   
803.000000	1.744575   
803.500000	1.646000   
804.000000	1.486356   
804.500000	1.344916   
805.000000	1.248537   
805.500000	1.270795   
806.000000	1.438060   
806.500000	1.530696   
807.000000	1.502659   
807.500000	1.522810   
808.000000	1.653727   
808.500000	1.678007   
809.000000	1.612189   
809.500000	1.596780   
810.000000	1.811886   
810.500000	1.823143   
811.000000	1.642553   
811.500000	1.501575   
812.000000	1.661393   
812.500000	1.723227   
813.000000	1.572318   
813.500000	1.355204   
814.000000	1.315651   
814.500000	1.239386   
815.000000	1.171371   
815.500000	1.265265   
816.000000	1.530196   
816.500000	1.536250   
817.000000	1.336272   
817.500000	1.284825   
818.000000	1.615681   
818.500000	1.834007   
819.000000	1.728189   
819.500000	1.491750   
820.000000	1.591325   
820.500000	1.940537   
821.000000	2.159227   
821.500000	2.134310   
822.000000	2.091250   
822.500000	2.242242   
823.000000	2.308242   
823.500000	2.239477   
824.000000	2.150545   
824.500000	2.335007   
825.000000	2.530280   
825.500000	2.580128   
826.000000	2.387795   
826.500000	2.311727   
827.000000	2.152492   
827.500000	1.985454   
828.000000	1.787053   
828.500000	1.737568   
829.000000	1.665227   
829.500000	1.630363   
830.000000	1.721621   
830.500000	1.734583   
831.000000	1.615378   
831.500000	1.386803   
832.000000	1.490295   
832.500000	1.591674   
833.000000	1.524022   
833.500000	1.267954   
834.000000	1.077803   
834.500000	0.934265   
835.000000	0.769719   
835.500000	0.782045   
836.000000	0.951712   
836.500000	1.148250   
837.000000	1.167818   
837.500000	1.134272   
838.000000	1.084469   
838.500000	1.030181   
839.000000	0.880515   
839.500000	0.688492   
840.000000	0.485780   
840.500000	0.489840   
841.000000	0.648590   
841.500000	0.777143   
842.000000	0.622098   
842.500000	0.408560   
843.000000	0.386666   
843.500000	0.633590   
844.000000	0.768712   
844.500000	0.775946   
845.000000	0.710818   
845.500000	0.691098   
846.000000	0.618469   
846.500000	0.407545   
847.000000	0.162287   
847.500000	0.059340   
848.000000	0.131606   
848.500000	0.157750   
849.000000	0.105659   
849.500000	0.017068   
850.000000	0.159151   
850.500000	0.342712   
851.000000	0.388280   
851.500000	0.184871   
852.000000	0.034303   
852.500000	-0.099045  
853.000000	-0.043984  
853.500000	0.080734   
854.000000	0.320242   
854.500000	0.329916   
855.000000	0.221060   
855.500000	0.020719   
856.000000	-0.026060  
856.500000	-0.067666  
857.000000	-0.071060  
857.500000	-0.061106  
858.000000	-0.003121  
858.500000	-0.001037  
859.000000	-0.054522  
859.500000	-0.079871  
860.000000	-0.039181  
860.500000	0.080772   
861.000000	0.072848   
861.500000	-0.091053  
862.000000	-0.219128  
862.500000	-0.099924  
863.000000	0.113833   
863.500000	0.168704   
864.000000	0.025378   
864.500000	-0.144825  
865.000000	-0.161340  
865.500000	-0.109621  
866.000000	-0.052727  
866.500000	0.024204   
867.000000	0.094659   
867.500000	0.126136   
868.000000	0.083143   
868.500000	-0.022598  
869.000000	-0.146621  
869.500000	-0.171750  
870.000000	-0.101886  
870.500000	0.058257   
871.000000	0.118909   
871.500000	0.071621   
872.000000	-0.035984  
872.500000	-0.008045  
873.000000	0.063628   
873.500000	0.025507   
874.000000	-0.165643  
874.500000	-0.339787  
875.000000	-0.291962  
875.500000	-0.139083  
876.000000	-0.100492  
876.500000	-0.193704  
877.000000	-0.178757  
877.500000	-0.059636  
878.000000	-0.004848  
878.500000	-0.038287  
879.000000	-0.124492  
879.500000	-0.110719  
880.000000	-0.090234  
880.500000	-0.049719  
881.000000	0.032356   
881.500000	0.178825   
882.000000	0.173333   
882.500000	0.151507   
883.000000	0.096393   
883.500000	0.148439   
884.000000	0.107946   
884.500000	0.051689   
885.000000	-0.062098  
885.500000	-0.053484  
886.000000	-0.108250  
886.500000	-0.124507  
887.000000	-0.108583  
887.500000	-0.062143  
888.000000	-0.089977  
888.500000	-0.193560  
889.000000	-0.282636  
889.500000	-0.234825  
890.000000	-0.126242  
890.500000	-0.095022  
891.000000	-0.119439  
891.500000	-0.129886  
892.000000	-0.165287  
892.500000	-0.218492  
893.000000	-0.252189  
893.500000	-0.232810  
894.000000	-0.179856  
894.500000	-0.213848  
895.000000	-0.221068  
895.500000	-0.206295  
896.000000	-0.073257  
896.500000	-0.022689  
897.000000	-0.037030  
897.500000	-0.208621  
898.000000	-0.301560  
898.500000	-0.317606  
899.000000	-0.227810  
899.500000	-0.115386  
900.000000	-0.030371  
900.500000	-0.001000  

