PE FL                   SPECTRUM    ASCII       PEDS        1.60        
  -1
S12R#15.SP
24/04/15
15:59:38.00
24/04/15
16:01:04.00
Jan

900.500000
1









LS55
405.00
5.00
5.00
SCAN
1
20
100
100
0
400
0
1
0
1
5
ON
900 405 
1 0 0
#HDR
-1
-1
#GR
NM

0.00002384185791015625
0.0
450.000000
0.500000
902
8
182.496856
-0.481196
#DATA
450.000000	-0.332000  
450.500000	-0.237439  
451.000000	-0.112636  
451.500000	0.062696   
452.000000	0.128113   
452.500000	-0.012765  
453.000000	-0.276734  
453.500000	-0.468901  
454.000000	-0.418787  
454.500000	-0.240840  
455.000000	-0.022560  
455.500000	0.019333   
456.000000	-0.147416  
456.500000	-0.381106  
457.000000	-0.395007  
457.500000	-0.199712  
458.000000	-0.090560  
458.500000	-0.043204  
459.000000	-0.102439  
459.500000	-0.137734  
460.000000	-0.241727  
460.500000	-0.204681  
461.000000	-0.054704  
461.500000	-0.053045  
462.000000	-0.176651  
462.500000	-0.287393  
463.000000	-0.135515  
463.500000	0.018189   
464.000000	0.034189   
464.500000	-0.161075  
465.000000	-0.404106  
465.500000	-0.481196  
466.000000	-0.475772  
466.500000	-0.201348  
467.000000	-0.086977  
467.500000	0.031113   
468.000000	-0.094356  
468.500000	-0.108106  
469.000000	-0.179401  
469.500000	-0.225325  
470.000000	-0.277212  
470.500000	-0.213174  
471.000000	-0.080310  
471.500000	-0.063030  
472.000000	-0.195030  
472.500000	-0.266833  
473.000000	-0.113757  
473.500000	0.180840   
474.000000	0.269257   
474.500000	0.027901   
475.000000	-0.290606  
475.500000	-0.329037  
476.000000	-0.165136  
476.500000	0.063787   
477.000000	0.105848   
477.500000	0.050537   
478.000000	-0.009401  
478.500000	0.041916   
479.000000	-0.003242  
479.500000	-0.131090  
480.000000	-0.286265  
480.500000	-0.324674  
481.000000	-0.186689  
481.500000	-0.002310  
482.000000	0.149689   
482.500000	0.090075   
483.000000	-0.040363  
483.500000	-0.107363  
484.000000	-0.044060  
484.500000	-0.057772  
485.000000	-0.133000  
485.500000	-0.140181  
486.000000	-0.121621  
486.500000	-0.210946  
487.000000	-0.348022  
487.500000	-0.365393  
488.000000	-0.250128  
488.500000	-0.142742  
489.000000	-0.075787  
489.500000	0.088045   
490.000000	0.204106   
490.500000	0.179734   
491.000000	0.039712   
491.500000	0.013151   
492.000000	0.071068   
492.500000	0.118901   
493.000000	0.177174   
493.500000	0.369393   
494.000000	0.601090   
494.500000	0.606590   
495.000000	0.415772   
495.500000	0.146515   
496.000000	0.100227   
496.500000	0.226560   
497.000000	0.334507   
497.500000	0.244159   
498.000000	0.120106   
498.500000	0.214772   
499.000000	0.444295   
499.500000	0.591863   
500.000000	0.557393   
500.500000	0.555681   
501.000000	0.621704   
501.500000	0.717553   
502.000000	0.744424   
502.500000	0.757818   
503.000000	0.731734   
503.500000	0.752568   
504.000000	0.776689   
504.500000	1.014022   
505.000000	1.258871   
505.500000	1.494681   
506.000000	1.511659   
506.500000	1.536340   
507.000000	1.552265   
507.500000	1.688613   
508.000000	1.834219   
508.500000	2.008969   
509.000000	2.139439   
509.500000	2.270121   
510.000000	2.446257   
510.500000	2.618007   
511.000000	2.716666   
511.500000	2.756924   
512.000000	2.614189   
512.500000	2.478795   
513.000000	2.462234   
513.500000	2.639280   
514.000000	2.820227   
514.500000	2.909734   
515.000000	2.977734   
515.500000	3.004954   
516.000000	3.011863   
516.500000	2.949962   
517.000000	2.955696   
517.500000	3.100106   
518.000000	3.399931   
518.500000	3.598992   
519.000000	3.514439   
519.500000	3.293174   
520.000000	3.198863   
520.500000	3.345810   
521.000000	3.518530   
521.500000	3.463856   
522.000000	3.436863   
522.500000	3.472969   
523.000000	3.674371   
523.500000	3.808651   
524.000000	3.837674   
524.500000	3.874810   
525.000000	3.893303   
525.500000	3.953280   
526.000000	3.835659   
526.500000	3.672325   
527.000000	3.543090   
527.500000	3.898863   
528.000000	4.425431   
528.500000	4.909757   
529.000000	5.094984   
529.500000	5.271257   
530.000000	5.473371   
530.500000	5.711651   
531.000000	5.920166   
531.500000	6.252878   
532.000000	6.390439   
532.500000	6.516992   
533.000000	6.552583   
533.500000	6.706446   
534.000000	6.819568   
534.500000	7.073515   
535.000000	7.471151   
535.500000	8.196227   
536.000000	8.769772   
536.500000	9.220893   
537.000000	9.305280   
537.500000	9.632446   
538.000000	10.001863  
538.500000	10.687113  
539.000000	11.267696  
539.500000	12.097075  
540.000000	12.609803  
540.500000	13.168333  
541.000000	13.575946  
541.500000	13.997734  
542.000000	14.348878  
542.500000	14.483939  
543.000000	14.487371  
543.500000	14.003136  
544.000000	13.289257  
544.500000	12.478825  
545.000000	11.783204  
545.500000	10.961303  
546.000000	10.401227  
546.500000	10.319492  
547.000000	10.283931  
547.500000	9.830439   
548.000000	8.813568   
548.500000	8.004598   
549.000000	7.484409   
549.500000	7.155075   
550.000000	6.567484   
550.500000	6.049507   
551.000000	5.435106   
551.500000	5.008189   
552.000000	4.458499   
552.500000	4.103840   
553.000000	3.708378   
553.500000	3.695984   
554.000000	3.767242   
554.500000	3.667424   
555.000000	3.218810   
555.500000	2.935598   
556.000000	3.122666   
556.500000	3.427719   
557.000000	3.491348   
557.500000	3.348856   
558.000000	3.113090   
558.500000	3.039803   
559.000000	3.049674   
559.500000	3.227666   
560.000000	3.177045   
560.500000	3.089560   
561.000000	2.975795   
561.500000	2.997462   
562.000000	3.049265   
562.500000	3.164901   
563.000000	3.254287   
563.500000	3.211553   
564.000000	3.130613   
564.500000	3.032333   
565.000000	3.024030   
565.500000	3.121219   
566.000000	3.213106   
566.500000	3.213954   
567.000000	3.051583   
567.500000	3.039924   
568.000000	3.255083   
568.500000	3.527825   
569.000000	3.562272   
569.500000	3.424727   
570.000000	3.224636   
570.500000	3.101189   
571.000000	3.104257   
571.500000	3.289659   
572.000000	3.454015   
572.500000	3.404893   
573.000000	3.182431   
573.500000	3.238393   
574.000000	3.498469   
574.500000	3.748409   
575.000000	3.696954   
575.500000	3.621060   
576.000000	3.613257   
576.500000	3.595128   
577.000000	3.399393   
577.500000	3.222371   
578.000000	3.306530   
578.500000	3.486363   
579.000000	3.556113   
579.500000	3.340219   
580.000000	3.135659   
580.500000	3.158924   
581.000000	3.401454   
581.500000	3.615893   
582.000000	3.710568   
582.500000	3.655749   
583.000000	3.617977   
583.500000	3.676431   
584.000000	3.877931   
584.500000	3.958840   
585.000000	3.954454   
585.500000	3.818553   
586.000000	3.805000   
586.500000	3.624181   
587.000000	3.574356   
587.500000	3.627401   
588.000000	3.911757   
588.500000	3.890280   
589.000000	3.813659   
589.500000	3.813560   
590.000000	4.139439   
590.500000	4.358196   
591.000000	4.470477   
591.500000	4.381954   
592.000000	4.254363   
592.500000	4.095318   
593.000000	4.075803   
593.500000	4.070159   
594.000000	4.023159   
594.500000	3.924939   
595.000000	3.925477   
595.500000	3.943704   
596.000000	3.973037   
596.500000	4.135196   
597.000000	4.389303   
597.500000	4.432295   
598.000000	4.470249   
598.500000	4.566628   
599.000000	4.863537   
599.500000	4.961787   
600.000000	5.033212   
600.500000	5.132166   
601.000000	5.459628   
601.500000	5.749015   
602.000000	5.710666   
602.500000	5.440787   
603.000000	5.229234   
603.500000	5.665818   
604.000000	6.332219   
604.500000	6.757249   
605.000000	6.529249   
605.500000	6.297401   
606.000000	6.486083   
606.500000	7.122204   
607.000000	7.493689   
607.500000	7.498916   
608.000000	7.463818   
608.500000	7.794000   
609.000000	8.143227   
609.500000	8.323416   
610.000000	8.298090   
610.500000	8.667333   
611.000000	9.206636   
611.500000	9.662681   
612.000000	9.708424   
612.500000	9.862393   
613.000000	10.157250  
613.500000	10.566613  
614.000000	10.439931  
614.500000	10.572250  
615.000000	11.029136  
615.500000	11.815712  
616.000000	12.116643  
616.500000	11.952212  
617.000000	11.926825  
617.500000	12.523719  
618.000000	13.500515  
618.500000	14.291727  
619.000000	14.696090  
619.500000	14.771416  
620.000000	15.029636  
620.500000	15.672174  
621.000000	16.637333  
621.500000	17.564825  
622.000000	18.017606  
622.500000	18.623219  
623.000000	19.303280  
623.500000	20.093492  
624.000000	20.260234  
624.500000	20.570537  
625.000000	21.290386  
625.500000	22.728227  
626.000000	24.130151  
626.500000	25.030371  
627.000000	25.409530  
627.500000	25.849416  
628.000000	26.496659  
628.500000	27.392378  
629.000000	28.163257  
629.500000	29.245083  
630.000000	30.614530  
630.500000	32.508454  
631.000000	33.913060  
631.500000	35.205272  
632.000000	36.229689  
632.500000	37.499060  
633.000000	38.896598  
633.500000	40.213098  
634.000000	41.095083  
634.500000	41.544553  
635.000000	42.259636  
635.500000	43.581189  
636.000000	45.659742  
636.500000	47.368431  
637.000000	49.210234  
637.500000	51.247621  
638.000000	53.539719  
638.500000	55.025348  
639.000000	56.425204  
639.500000	57.500621  
640.000000	59.119181  
640.500000	60.338265  
641.000000	62.014742  
641.500000	63.824628  
642.000000	65.997484  
642.500000	68.152462  
643.000000	70.803840  
643.500000	73.438356  
644.000000	75.278295  
644.500000	76.515143  
645.000000	77.887068  
645.500000	80.229795  
646.000000	82.431121  
646.500000	84.167530  
647.000000	85.880492  
647.500000	88.199098  
648.000000	90.468590  
648.500000	92.379765  
649.000000	94.221159  
649.500000	96.437174  
650.000000	99.257159  
650.500000	102.193348 
651.000000	104.615500 
651.500000	106.483174 
652.000000	108.261537 
652.500000	110.133386 
653.000000	112.179212 
653.500000	114.439939 
654.000000	117.280272 
654.500000	120.362310 
655.000000	122.737431 
655.500000	124.308363 
656.000000	125.631303 
656.500000	127.867439 
657.000000	130.604166 
657.500000	132.637977 
658.000000	134.309825 
658.500000	136.651045 
659.000000	139.924840 
659.500000	142.248401 
660.000000	144.144696 
660.500000	146.153916 
661.000000	148.821856 
661.500000	150.226787 
662.000000	151.482522 
662.500000	153.460924 
663.000000	156.293121 
663.500000	157.732037 
664.000000	158.258265 
664.500000	158.517537 
665.000000	160.475340 
665.500000	162.631848 
666.000000	164.818575 
666.500000	166.151969 
667.000000	167.391439 
667.500000	167.802939 
668.000000	168.505151 
668.500000	169.687840 
669.000000	171.206969 
669.500000	172.858204 
670.000000	174.265659 
670.500000	176.115272 
671.000000	177.192212 
671.500000	177.350681 
672.000000	176.466098 
672.500000	175.843924 
673.000000	176.095000 
673.500000	177.994227 
674.000000	180.236787 
674.500000	182.073007 
675.000000	182.496856 
675.500000	181.807303 
676.000000	181.476477 
676.500000	181.579840 
677.000000	181.989310 
677.500000	181.498250 
678.000000	180.847878 
678.500000	179.371969 
679.000000	178.051795 
679.500000	175.718598 
680.000000	174.745643 
680.500000	173.801090 
681.000000	174.225962 
681.500000	174.403810 
682.000000	173.795340 
682.500000	171.174878 
683.000000	168.755416 
683.500000	166.656787 
684.000000	164.891727 
684.500000	162.094393 
685.000000	160.013954 
685.500000	158.843992 
686.000000	158.255666 
686.500000	157.291969 
687.000000	156.052212 
687.500000	153.169462 
688.000000	149.380212 
688.500000	145.459856 
689.000000	141.938636 
689.500000	138.915727 
690.000000	135.841212 
690.500000	133.110613 
691.000000	130.481280 
691.500000	128.169689 
692.000000	125.587128 
692.500000	122.686371 
693.000000	118.965810 
693.500000	115.693666 
694.000000	113.300037 
694.500000	111.225530 
695.000000	108.592901 
695.500000	105.454446 
696.000000	102.342348 
696.500000	99.767159  
697.000000	97.093363  
697.500000	94.890545  
698.000000	93.293803  
698.500000	91.834613  
699.000000	88.853393  
699.500000	85.442189  
700.000000	82.692257  
700.500000	81.035106  
701.000000	79.188568  
701.500000	76.358363  
702.000000	73.461484  
702.500000	70.940871  
703.000000	69.106386  
703.500000	67.011295  
704.000000	65.273242  
704.500000	63.545121  
705.000000	62.453462  
705.500000	60.767515  
706.000000	58.469098  
706.500000	55.851227  
707.000000	53.963500  
707.500000	52.944568  
708.000000	52.162030  
708.500000	51.020053  
709.000000	49.322242  
709.500000	47.636469  
710.000000	45.710719  
710.500000	44.007121  
711.000000	42.790363  
711.500000	42.017386  
712.000000	40.907431  
712.500000	39.552068  
713.000000	38.423893  
713.500000	37.657060  
714.000000	36.438954  
714.500000	35.236643  
715.000000	34.265045  
715.500000	33.739015  
716.000000	32.729446  
716.500000	32.113946  
717.000000	31.376628  
717.500000	30.543621  
718.000000	29.113416  
718.500000	27.568590  
719.000000	26.397340  
719.500000	25.742477  
720.000000	25.758045  
720.500000	25.683825  
721.000000	25.374977  
721.500000	24.116446  
722.000000	22.988765  
722.500000	21.971204  
723.000000	21.580242  
723.500000	21.281022  
724.000000	20.725068  
724.500000	19.800507  
725.000000	18.816818  
725.500000	18.082507  
726.000000	17.387765  
726.500000	17.036681  
727.000000	16.744227  
727.500000	16.530333  
728.000000	16.193689  
728.500000	15.881833  
729.000000	15.440515  
729.500000	14.762212  
730.000000	13.892212  
730.500000	13.608825  
731.000000	13.663022  
731.500000	13.737840  
732.000000	13.403954  
732.500000	13.305181  
733.000000	12.929424  
733.500000	12.673257  
734.000000	11.953545  
734.500000	11.629446  
735.000000	11.414530  
735.500000	11.596500  
736.000000	11.861954  
736.500000	11.958984  
737.000000	11.607386  
737.500000	11.013484  
738.000000	10.423227  
738.500000	10.052015  
739.000000	9.906371   
739.500000	9.906530   
740.000000	9.845469   
740.500000	9.573371   
741.000000	9.122325   
741.500000	8.682272   
742.000000	8.353522   
742.500000	8.231643   
743.000000	8.305909   
743.500000	8.200469   
744.000000	7.925068   
744.500000	7.702280   
745.000000	7.841007   
745.500000	8.093666   
746.000000	7.923204   
746.500000	7.613075   
747.000000	7.410469   
747.500000	7.436977   
748.000000	7.355227   
748.500000	7.138393   
749.000000	7.014954   
749.500000	7.086424   
750.000000	7.064113   
750.500000	6.511924   
751.000000	5.954924   
751.500000	5.740878   
752.000000	5.948310   
752.500000	5.900863   
753.000000	5.517719   
753.500000	5.174348   
754.000000	5.157871   
754.500000	5.564386   
755.000000	5.984704   
755.500000	6.082825   
756.000000	5.551924   
756.500000	5.175674   
757.000000	5.009181   
757.500000	5.061469   
758.000000	4.938575   
758.500000	4.874280   
759.000000	4.811886   
759.500000	4.727242   
760.000000	4.556878   
760.500000	4.455848   
761.000000	4.635636   
761.500000	4.893439   
762.000000	4.982333   
762.500000	4.709393   
763.000000	4.499325   
763.500000	4.408507   
764.000000	4.293962   
764.500000	4.135575   
765.000000	4.283954   
765.500000	4.585954   
766.000000	4.596409   
766.500000	4.422590   
767.000000	4.308393   
767.500000	4.318000   
768.000000	3.991045   
768.500000	3.808575   
769.000000	3.831651   
769.500000	4.210113   
770.000000	4.284575   
770.500000	4.195333   
771.000000	3.695348   
771.500000	3.277325   
772.000000	3.073515   
772.500000	3.305477   
773.000000	3.540022   
773.500000	3.491492   
774.000000	3.250060   
774.500000	3.041681   
775.000000	3.026818   
775.500000	3.146401   
776.000000	3.284000   
776.500000	3.291750   
777.000000	3.269409   
777.500000	3.332969   
778.000000	3.456598   
778.500000	3.487128   
779.000000	3.363250   
779.500000	3.148621   
780.000000	2.986606   
780.500000	2.985462   
781.000000	3.090628   
781.500000	3.039060   
782.000000	2.862045   
782.500000	2.765181   
783.000000	2.926515   
783.500000	3.129439   
784.000000	3.199265   
784.500000	2.986780   
785.000000	2.744174   
785.500000	2.676363   
786.000000	2.796378   
786.500000	2.862500   
787.000000	2.765015   
787.500000	2.719674   
788.000000	2.804121   
788.500000	2.949030   
789.000000	3.013295   
789.500000	3.061416   
790.000000	2.986348   
790.500000	2.851053   
791.000000	2.677416   
791.500000	2.593803   
792.000000	2.610643   
792.500000	2.696287   
793.000000	2.810446   
793.500000	2.751992   
794.000000	2.594590   
794.500000	2.415674   
795.000000	2.378106   
795.500000	2.384765   
796.000000	2.430977   
796.500000	2.438909   
797.000000	2.472484   
797.500000	2.446871   
798.000000	2.269772   
798.500000	2.073234   
799.000000	2.084136   
799.500000	2.368454   
800.000000	2.504606   
800.500000	2.362500   
801.000000	2.081727   
801.500000	1.989636   
802.000000	1.967090   
802.500000	1.990946   
803.000000	2.002007   
803.500000	1.994439   
804.000000	1.803606   
804.500000	1.693227   
805.000000	1.711333   
805.500000	1.776083   
806.000000	1.766848   
806.500000	1.722265   
807.000000	1.717613   
807.500000	1.724212   
808.000000	1.643037   
808.500000	1.680007   
809.000000	1.864113   
809.500000	1.998893   
810.000000	2.007590   
810.500000	1.913007   
811.000000	1.816719   
811.500000	1.791439   
812.000000	1.793242   
812.500000	1.839439   
813.000000	1.736401   
813.500000	1.514083   
814.000000	1.373674   
814.500000	1.560166   
815.000000	1.824893   
815.500000	1.925098   
816.000000	1.672848   
816.500000	1.424037   
817.000000	1.334856   
817.500000	1.436227   
818.000000	1.693174   
818.500000	1.838393   
819.000000	1.802477   
819.500000	1.650628   
820.000000	1.675765   
820.500000	2.011954   
821.000000	2.454196   
821.500000	2.602136   
822.000000	2.525265   
822.500000	2.417090   
823.000000	2.346651   
823.500000	2.333803   
824.000000	2.464598   
824.500000	2.685128   
825.000000	2.754863   
825.500000	2.468189   
826.000000	2.172984   
826.500000	2.274984   
827.000000	2.511227   
827.500000	2.488439   
828.000000	2.130310   
828.500000	1.748742   
829.000000	1.468719   
829.500000	1.324583   
830.000000	1.269250   
830.500000	1.335022   
831.000000	1.468416   
831.500000	1.462378   
832.000000	1.399045   
832.500000	1.235651   
833.000000	1.103113   
833.500000	1.026719   
834.000000	0.979113   
834.500000	0.813999   
835.000000	0.654196   
835.500000	0.646818   
836.000000	0.812886   
836.500000	0.959719   
837.000000	0.994015   
837.500000	0.986696   
838.000000	1.029765   
838.500000	0.968378   
839.000000	0.863492   
839.500000	0.753909   
840.000000	0.751977   
840.500000	0.835325   
841.000000	0.907984   
841.500000	0.875181   
842.000000	0.768340   
842.500000	0.566992   
843.000000	0.350037   
843.500000	0.273196   
844.000000	0.473962   
844.500000	0.764712   
845.000000	0.849689   
845.500000	0.634484   
846.000000	0.401560   
846.500000	0.458590   
847.000000	0.664015   
847.500000	0.835568   
848.000000	0.807590   
848.500000	0.619007   
849.000000	0.388659   
849.500000	0.204378   
850.000000	0.167075   
850.500000	0.230242   
851.000000	0.364977   
851.500000	0.418318   
852.000000	0.431696   
852.500000	0.380212   
853.000000	0.216734   
853.500000	0.073181   
854.000000	0.004628   
854.500000	0.139962   
855.000000	0.229840   
855.500000	0.268939   
856.000000	0.272871   
856.500000	0.339151   
857.000000	0.320424   
857.500000	0.197007   
858.000000	0.112522   
858.500000	0.099143   
859.000000	0.116015   
859.500000	0.022060   
860.000000	0.003507   
860.500000	0.049659   
861.000000	0.133219   
861.500000	0.061575   
862.000000	-0.083848  
862.500000	-0.161318  
863.000000	-0.127272  
863.500000	-0.089121  
864.000000	-0.117000  
864.500000	-0.215196  
865.000000	-0.265015  
865.500000	-0.226628  
866.000000	-0.112628  
866.500000	-0.023810  
867.000000	0.036484   
867.500000	0.097234   
868.000000	0.139015   
868.500000	0.115636   
869.000000	0.008409   
869.500000	-0.067151  
870.000000	-0.087727  
870.500000	0.087810   
871.000000	0.251507   
871.500000	0.313916   
872.000000	0.151159   
872.500000	-0.051128  
873.000000	-0.205833  
873.500000	-0.211295  
874.000000	-0.147833  
874.500000	-0.045409  
875.000000	0.022621   
875.500000	0.020515   
876.000000	0.053053   
876.500000	0.035931   
877.000000	0.015181   
877.500000	-0.012772  
878.000000	0.050742   
878.500000	0.100901   
879.000000	0.102340   
879.500000	0.001363   
880.000000	-0.047037  
880.500000	0.010977   
881.000000	0.112750   
881.500000	0.075939   
882.000000	-0.127742  
882.500000	-0.237931  
883.000000	-0.128636  
883.500000	0.069621   
884.000000	0.091015   
884.500000	0.075545   
885.000000	0.032159   
885.500000	0.013977   
886.000000	-0.126727  
886.500000	-0.221204  
887.000000	-0.234787  
887.500000	-0.143227  
888.000000	-0.079924  
888.500000	-0.099340  
889.000000	-0.105772  
889.500000	-0.023060  
890.000000	0.121280   
890.500000	0.099734   
891.000000	-0.021553  
891.500000	-0.090295  
892.000000	-0.032303  
892.500000	0.016371   
893.000000	0.003333   
893.500000	-0.014272  
894.000000	-0.032257  
894.500000	-0.039431  
895.000000	-0.116840  
895.500000	-0.084469  
896.000000	0.028704   
896.500000	0.197053   
897.000000	0.188674   
897.500000	0.066537   
898.000000	-0.114643  
898.500000	-0.178537  
899.000000	-0.209750  
899.500000	-0.221386  
900.000000	-0.271575  
900.500000	-0.371999  

