PE FL                   SPECTRUM    ASCII       PEDS        1.60        
  -1
S12R#20.SP
24/04/15
16:06:46.00
24/04/15
16:08:11.00
Jan

900.500000
1









LS55
405.00
5.00
5.00
SCAN
1
20
100
100
0
400
0
1
0
1
5
ON
900 405 
1 0 0
#HDR
-1
-1
#GR
NM

0.00002384185791015625
0.0
450.000000
0.500000
902
8
177.986871
-0.425909
#DATA
450.000000	-0.134000  
450.500000	-0.070810  
451.000000	-0.097075  
451.500000	-0.169984  
452.000000	-0.387553  
452.500000	-0.408886  
453.000000	-0.369818  
453.500000	-0.225719  
454.000000	-0.222250  
454.500000	-0.127212  
455.000000	-0.089537  
455.500000	-0.059590  
456.000000	-0.101818  
456.500000	-0.063553  
457.000000	0.040416   
457.500000	0.112030   
458.000000	0.071840   
458.500000	0.036196   
459.000000	0.012507   
459.500000	0.019378   
460.000000	-0.096166  
460.500000	-0.214840  
461.000000	-0.257181  
461.500000	-0.174083  
462.000000	-0.102204  
462.500000	-0.001409  
463.000000	0.150189   
463.500000	0.225833   
464.000000	0.061265   
464.500000	-0.208886  
465.000000	-0.399000  
465.500000	-0.364189  
466.000000	-0.321560  
466.500000	-0.127431  
467.000000	0.046712   
467.500000	0.176886   
468.000000	0.016454   
468.500000	-0.117727  
469.000000	-0.187356  
469.500000	-0.078666  
470.000000	0.045454   
470.500000	0.160416   
471.000000	0.224371   
471.500000	0.254583   
472.000000	0.301537   
472.500000	0.250174   
473.000000	0.158916   
473.500000	-0.046454  
474.000000	-0.070181  
474.500000	-0.159416  
475.000000	-0.104848  
475.500000	-0.023795  
476.000000	0.266174   
476.500000	0.360750   
477.000000	0.244325   
477.500000	-0.068621  
478.000000	-0.185454  
478.500000	-0.160151  
479.000000	-0.049386  
479.500000	0.054499   
480.000000	0.085878   
480.500000	0.017962   
481.000000	-0.086371  
481.500000	-0.079742  
482.000000	-0.003780  
482.500000	0.125545   
483.000000	0.130128   
483.500000	0.175015   
484.000000	0.127128   
484.500000	0.182431   
485.000000	0.184750   
485.500000	0.202000   
486.000000	0.127356   
486.500000	-0.009030  
487.000000	-0.176401  
487.500000	-0.386825  
488.000000	-0.410325  
488.500000	-0.425909  
489.000000	-0.367439  
489.500000	-0.348098  
490.000000	-0.022356  
490.500000	0.201151   
491.000000	0.228969   
491.500000	-0.020121  
492.000000	-0.179575  
492.500000	-0.214265  
493.000000	-0.104666  
493.500000	-0.045674  
494.000000	0.039969   
494.500000	0.095560   
495.000000	0.245575   
495.500000	0.470530   
496.000000	0.632068   
496.500000	0.650348   
497.000000	0.592803   
497.500000	0.559977   
498.000000	0.481204   
498.500000	0.366257   
499.000000	0.285416   
499.500000	0.383166   
500.000000	0.528856   
500.500000	0.672303   
501.000000	0.759174   
501.500000	0.785636   
502.000000	0.800803   
502.500000	0.753643   
503.000000	0.787901   
503.500000	0.843431   
504.000000	0.938984   
504.500000	0.882121   
505.000000	1.060310   
505.500000	1.272946   
506.000000	1.518583   
506.500000	1.573053   
507.000000	1.559356   
507.500000	1.593151   
508.000000	1.624083   
508.500000	1.798992   
509.000000	1.986522   
509.500000	2.246121   
510.000000	2.184121   
510.500000	2.196303   
511.000000	2.231121   
511.500000	2.450772   
512.000000	2.546492   
512.500000	2.722946   
513.000000	2.743060   
513.500000	2.824469   
514.000000	2.840568   
514.500000	2.982931   
515.000000	3.190893   
515.500000	3.430878   
516.000000	3.395098   
516.500000	3.292250   
517.000000	3.176439   
517.500000	3.069507   
518.000000	2.948227   
518.500000	2.982363   
519.000000	3.171181   
519.500000	3.520575   
520.000000	3.687045   
520.500000	3.641704   
521.000000	3.423113   
521.500000	3.221727   
522.000000	3.159810   
522.500000	3.260227   
523.000000	3.265727   
523.500000	3.142250   
524.000000	3.144492   
524.500000	3.386424   
525.000000	3.705583   
525.500000	3.815583   
526.000000	3.727628   
526.500000	3.826537   
527.000000	4.098250   
527.500000	4.498712   
528.000000	4.715780   
528.500000	4.875378   
529.000000	4.875106   
529.500000	4.844128   
530.000000	4.727954   
530.500000	4.727924   
531.000000	5.011613   
531.500000	5.429098   
532.000000	5.845484   
532.500000	6.200704   
533.000000	6.750204   
533.500000	7.168962   
534.000000	7.625643   
534.500000	7.730227   
535.000000	7.964007   
535.500000	8.235098   
536.000000	8.747939   
536.500000	9.169878   
537.000000	9.586310   
537.500000	9.986143   
538.000000	10.504833  
538.500000	11.052537  
539.000000	11.411848  
539.500000	11.960469  
540.000000	12.447446  
540.500000	13.115143  
541.000000	13.860848  
541.500000	14.627795  
542.000000	14.742340  
542.500000	14.361492  
543.000000	13.531037  
543.500000	13.085893  
544.000000	12.566318  
544.500000	12.419742  
545.000000	11.962136  
545.500000	11.719757  
546.000000	11.033310  
546.500000	10.647977  
547.000000	9.743734   
547.500000	9.013454   
548.000000	8.326128   
548.500000	8.025219   
549.000000	7.498568   
549.500000	6.760939   
550.000000	6.077250   
550.500000	5.707893   
551.000000	5.346909   
551.500000	4.667250   
552.000000	3.941856   
552.500000	3.485568   
553.000000	3.376431   
553.500000	3.485045   
554.000000	3.420295   
554.500000	3.409886   
555.000000	3.376121   
555.500000	3.325696   
556.000000	3.115090   
556.500000	3.037681   
557.000000	3.057151   
557.500000	3.100212   
558.000000	3.054787   
558.500000	3.130878   
559.000000	3.242871   
559.500000	3.257409   
560.000000	3.172659   
560.500000	3.223325   
561.000000	3.288674   
561.500000	3.274651   
562.000000	3.149272   
562.500000	3.121060   
563.000000	3.128742   
563.500000	3.103106   
564.000000	3.004977   
564.500000	2.970507   
565.000000	3.049030   
565.500000	3.343090   
566.000000	3.606787   
566.500000	3.886962   
567.000000	3.854712   
567.500000	3.708825   
568.000000	3.287212   
568.500000	3.229712   
569.000000	3.306636   
569.500000	3.550863   
570.000000	3.443113   
570.500000	3.279189   
571.000000	3.082734   
571.500000	3.040015   
572.000000	2.945113   
572.500000	2.864962   
573.000000	2.853469   
573.500000	2.978053   
574.000000	3.093977   
574.500000	3.119643   
575.000000	3.000060   
575.500000	2.991689   
576.000000	3.107325   
576.500000	3.274371   
577.000000	3.239810   
577.500000	3.177522   
578.000000	3.194863   
578.500000	3.226734   
579.000000	3.158037   
579.500000	3.214621   
580.000000	3.423613   
580.500000	3.644916   
581.000000	3.663613   
581.500000	3.668386   
582.000000	3.639295   
582.500000	3.530681   
583.000000	3.274439   
583.500000	3.111356   
584.000000	3.027098   
584.500000	2.991916   
585.000000	3.019651   
585.500000	3.107053   
586.000000	3.333825   
586.500000	3.514696   
587.000000	3.626598   
587.500000	3.738924   
588.000000	4.057075   
588.500000	4.315143   
589.000000	4.248371   
589.500000	4.022787   
590.000000	3.738310   
590.500000	3.785840   
591.000000	3.774689   
591.500000	3.803075   
592.000000	3.619674   
592.500000	3.537325   
593.000000	3.396689   
593.500000	3.743878   
594.000000	4.175007   
594.500000	4.553856   
595.000000	4.555553   
595.500000	4.553583   
596.000000	4.773901   
596.500000	4.936500   
597.000000	4.814750   
597.500000	4.563499   
598.000000	4.481045   
598.500000	4.587871   
599.000000	4.891272   
599.500000	5.261636   
600.000000	5.584454   
600.500000	5.625386   
601.000000	5.418212   
601.500000	5.325401   
602.000000	5.485060   
602.500000	5.729636   
603.000000	5.876212   
603.500000	5.885333   
604.000000	6.003803   
604.500000	6.161128   
605.000000	6.143378   
605.500000	6.026340   
606.000000	6.141424   
606.500000	6.742227   
607.000000	7.365590   
607.500000	7.608000   
608.000000	7.572340   
608.500000	7.827204   
609.000000	8.423962   
609.500000	8.898560   
610.000000	8.907401   
610.500000	8.727696   
611.000000	8.766378   
611.500000	9.098954   
612.000000	9.566712   
612.500000	9.899151   
613.000000	9.991924   
613.500000	10.136515  
614.000000	10.607825  
614.500000	11.337257  
615.000000	11.957159  
615.500000	12.213113  
616.000000	12.469750  
616.500000	13.102113  
617.000000	13.645666  
617.500000	13.496939  
618.000000	13.202606  
618.500000	13.710310  
619.000000	15.245825  
619.500000	16.750007  
620.000000	17.392871  
620.500000	17.614931  
621.000000	17.907393  
621.500000	18.349750  
622.000000	18.726696  
622.500000	19.148810  
623.000000	19.779545  
623.500000	20.562742  
624.000000	21.181893  
624.500000	21.616401  
625.000000	22.122068  
625.500000	23.042000  
626.000000	24.007424  
626.500000	25.119212  
627.000000	26.320371  
627.500000	27.819734  
628.000000	28.875053  
628.500000	29.447166  
629.000000	29.864780  
629.500000	30.905909  
630.000000	32.676598  
630.500000	34.212530  
631.000000	35.078477  
631.500000	35.701984  
632.000000	36.659280  
632.500000	38.032840  
633.000000	39.423030  
633.500000	40.896515  
634.000000	42.241871  
634.500000	43.885795  
635.000000	45.634946  
635.500000	47.443636  
636.000000	49.276454  
636.500000	50.753174  
637.000000	51.918439  
637.500000	52.478833  
638.000000	53.586106  
638.500000	55.100166  
639.000000	56.859371  
639.500000	57.987416  
640.000000	59.998492  
640.500000	62.832340  
641.000000	65.932484  
641.500000	67.846954  
642.000000	68.941621  
642.500000	70.101931  
643.000000	72.549265  
643.500000	75.508931  
644.000000	77.952553  
644.500000	78.691068  
645.000000	79.596174  
645.500000	81.535916  
646.000000	84.241007  
646.500000	86.317242  
647.000000	88.571787  
647.500000	91.103174  
648.000000	94.377121  
648.500000	97.388121  
649.000000	99.925159  
649.500000	102.300060 
650.000000	104.183189 
650.500000	105.661484 
651.000000	107.020068 
651.500000	109.055568 
652.000000	112.095674 
652.500000	115.308863 
653.000000	117.878984 
653.500000	120.056189 
654.000000	122.812090 
654.500000	124.339613 
655.000000	125.242613 
655.500000	126.292795 
656.000000	129.202734 
656.500000	132.657537 
657.000000	135.129060 
657.500000	136.402621 
658.000000	137.493318 
658.500000	138.381015 
659.000000	140.013515 
659.500000	142.546515 
660.000000	145.342075 
660.500000	147.149606 
661.000000	148.766803 
661.500000	149.969500 
662.000000	151.023325 
662.500000	151.943166 
663.000000	153.475863 
663.500000	156.770522 
664.000000	159.582265 
664.500000	162.247848 
665.000000	163.776863 
665.500000	165.668628 
666.000000	165.604492 
666.500000	166.034636 
667.000000	166.120780 
667.500000	166.966272 
668.000000	167.256803 
668.500000	169.691545 
669.000000	172.428416 
669.500000	173.853439 
670.000000	172.547250 
670.500000	172.067234 
671.000000	173.454015 
671.500000	174.899833 
672.000000	175.674575 
672.500000	176.512159 
673.000000	177.737939 
673.500000	177.927015 
674.000000	177.986871 
674.500000	177.067500 
675.000000	176.244143 
675.500000	175.204583 
676.000000	175.346863 
676.500000	175.936174 
677.000000	176.751409 
677.500000	176.936954 
678.000000	176.646462 
678.500000	175.366984 
679.000000	173.814568 
679.500000	172.018553 
680.000000	170.416803 
680.500000	168.750590 
681.000000	168.273159 
681.500000	167.618060 
682.000000	166.345227 
682.500000	163.901469 
683.000000	162.075825 
683.500000	160.240151 
684.000000	158.819833 
684.500000	157.697583 
685.000000	157.254159 
685.500000	156.034242 
686.000000	152.534340 
686.500000	149.362030 
687.000000	146.566515 
687.500000	144.444674 
688.000000	140.387219 
688.500000	137.250454 
689.000000	134.254068 
689.500000	132.791780 
690.000000	129.925712 
690.500000	128.140681 
691.000000	126.369893 
691.500000	123.974386 
692.000000	120.297825 
692.500000	116.489250 
693.000000	113.578772 
693.500000	110.912590 
694.000000	108.518583 
694.500000	105.892560 
695.000000	103.182825 
695.500000	99.677507  
696.000000	96.642295  
696.500000	93.980507  
697.000000	91.406492  
697.500000	88.422295  
698.000000	85.810734  
698.500000	84.052242  
699.000000	82.672628  
699.500000	80.177340  
700.000000	77.164734  
700.500000	74.405060  
701.000000	72.707969  
701.500000	71.040772  
702.000000	69.284984  
702.500000	67.119325  
703.000000	65.344992  
703.500000	63.421833  
704.000000	61.758522  
704.500000	59.281446  
705.000000	57.044833  
705.500000	55.184143  
706.000000	54.325840  
706.500000	52.747780  
707.000000	51.553060  
707.500000	50.229053  
708.000000	49.462257  
708.500000	47.651090  
709.000000	46.149083  
709.500000	44.379181  
710.000000	43.452128  
710.500000	42.121606  
711.000000	41.186030  
711.500000	40.277234  
712.000000	39.910757  
712.500000	39.571878  
713.000000	38.555098  
713.500000	36.802037  
714.000000	34.935689  
714.500000	33.857666  
715.000000	32.843901  
715.500000	31.637219  
716.000000	30.219227  
716.500000	29.202250  
717.000000	28.696651  
717.500000	28.197378  
718.000000	27.507893  
718.500000	26.100250  
719.000000	24.572636  
719.500000	23.602545  
720.000000	24.010568  
720.500000	24.273371  
721.000000	23.733068  
721.500000	22.696409  
722.000000	22.179416  
722.500000	21.887590  
723.000000	21.750287  
723.500000	21.443166  
724.000000	20.674537  
724.500000	19.381227  
725.000000	18.348219  
725.500000	17.785037  
726.000000	17.359833  
726.500000	16.913939  
727.000000	16.665098  
727.500000	16.237750  
728.000000	15.508196  
728.500000	14.565666  
729.000000	14.145356  
729.500000	13.916939  
730.000000	14.026287  
730.500000	13.800719  
731.000000	13.202598  
731.500000	12.459484  
732.000000	12.416939  
732.500000	12.438689  
733.000000	12.231848  
733.500000	11.722151  
734.000000	11.481507  
734.500000	11.148780  
735.000000	10.783757  
735.500000	10.216507  
736.000000	10.063537  
736.500000	10.192780  
737.000000	10.544060  
737.500000	10.340439  
738.000000	9.734659   
738.500000	9.077712   
739.000000	8.787522   
739.500000	8.738681   
740.000000	8.659295   
740.500000	8.852636   
741.000000	9.047196   
741.500000	9.148007   
742.000000	8.709439   
742.500000	8.487106   
743.000000	8.205196   
743.500000	8.066007   
744.000000	7.527583   
744.500000	7.105674   
745.000000	6.910681   
745.500000	7.225848   
746.000000	7.457242   
746.500000	7.370090   
747.000000	6.999553   
747.500000	6.684606   
748.000000	6.675492   
748.500000	6.566393   
749.000000	6.297303   
749.500000	5.836053   
750.000000	5.737962   
750.500000	5.575340   
751.000000	5.454727   
751.500000	5.134053   
752.000000	5.166681   
752.500000	5.111098   
753.000000	5.095878   
753.500000	4.966068   
754.000000	5.088606   
754.500000	5.209530   
755.000000	5.420431   
755.500000	5.484651   
756.000000	5.465151   
756.500000	5.029363   
757.000000	4.593325   
757.500000	4.412856   
758.000000	4.700121   
758.500000	4.938969   
759.000000	5.169984   
759.500000	5.303166   
760.000000	5.260840   
760.500000	4.868045   
761.000000	4.429651   
761.500000	4.230015   
762.000000	4.198265   
762.500000	4.141196   
763.000000	3.955719   
763.500000	3.937363   
764.000000	3.975916   
764.500000	4.084507   
765.000000	4.169840   
765.500000	4.188666   
766.000000	4.230712   
766.500000	4.265946   
767.000000	4.269166   
767.500000	4.044318   
768.000000	3.833848   
768.500000	3.542189   
769.000000	3.416500   
769.500000	3.347840   
770.000000	3.486871   
770.500000	3.558583   
771.000000	3.543409   
771.500000	3.415030   
772.000000	3.376939   
772.500000	3.273628   
773.000000	3.195204   
773.500000	3.189250   
774.000000	3.249416   
774.500000	3.200840   
775.000000	3.098659   
775.500000	3.152159   
776.000000	3.332583   
776.500000	3.386810   
777.000000	3.235840   
777.500000	3.171196   
778.000000	3.200840   
778.500000	3.058946   
779.000000	2.830234   
779.500000	2.746621   
780.000000	2.950356   
780.500000	3.011545   
781.000000	2.955840   
781.500000	2.871681   
782.000000	2.947492   
782.500000	3.003439   
783.000000	2.942189   
783.500000	2.858181   
784.000000	2.736689   
784.500000	2.792272   
785.000000	2.791681   
785.500000	2.866643   
786.000000	2.785833   
786.500000	2.819719   
787.000000	2.715962   
787.500000	2.612060   
788.000000	2.591409   
788.500000	2.695674   
789.000000	2.760909   
789.500000	2.730204   
790.000000	2.860916   
790.500000	2.979083   
791.000000	2.974098   
791.500000	2.651522   
792.000000	2.495250   
792.500000	2.527386   
793.000000	2.637696   
793.500000	2.583272   
794.000000	2.561833   
794.500000	2.591121   
795.000000	2.650409   
795.500000	2.578068   
796.000000	2.446560   
796.500000	2.383356   
797.000000	2.278727   
797.500000	2.132545   
798.000000	1.985613   
798.500000	2.107689   
799.000000	2.349537   
799.500000	2.556621   
800.000000	2.511931   
800.500000	2.288795   
801.000000	2.023818   
801.500000	1.916401   
802.000000	1.924037   
802.500000	1.913696   
803.000000	1.868128   
803.500000	1.885704   
804.000000	2.045530   
804.500000	2.094901   
805.000000	1.949212   
805.500000	1.792742   
806.000000	1.819250   
806.500000	1.950477   
807.000000	1.944378   
807.500000	1.722871   
808.000000	1.528416   
808.500000	1.475772   
809.000000	1.399454   
809.500000	1.339840   
810.000000	1.413803   
810.500000	1.697863   
811.000000	1.981530   
811.500000	1.970765   
812.000000	1.730022   
812.500000	1.400143   
813.000000	1.238621   
813.500000	1.275159   
814.000000	1.368946   
814.500000	1.381340   
815.000000	1.390583   
815.500000	1.427636   
816.000000	1.438295   
816.500000	1.325984   
817.000000	1.381053   
817.500000	1.499969   
818.000000	1.771090   
818.500000	1.675280   
819.000000	1.639303   
819.500000	1.614810   
820.000000	1.916575   
820.500000	2.025712   
821.000000	2.167787   
821.500000	2.304803   
822.000000	2.569643   
822.500000	2.825386   
823.000000	2.825000   
823.500000	2.721356   
824.000000	2.459060   
824.500000	2.454030   
825.000000	2.423946   
825.500000	2.508742   
826.000000	2.266727   
826.500000	2.259113   
827.000000	2.230409   
827.500000	2.257621   
828.000000	2.017257   
828.500000	1.769083   
829.000000	1.452916   
829.500000	1.291780   
830.000000	1.219446   
830.500000	1.400734   
831.000000	1.543250   
831.500000	1.443674   
832.000000	1.130553   
832.500000	0.932689   
833.000000	0.927151   
833.500000	1.058242   
834.000000	1.107825   
834.500000	1.055356   
835.000000	1.001522   
835.500000	1.023113   
836.000000	1.036500   
836.500000	1.015113   
837.000000	0.842212   
837.500000	0.804545   
838.000000	0.783053   
838.500000	0.853174   
839.000000	0.701992   
839.500000	0.565242   
840.000000	0.511303   
840.500000	0.582568   
841.000000	0.529696   
841.500000	0.442219   
842.000000	0.508257   
842.500000	0.562484   
843.000000	0.498015   
843.500000	0.323818   
844.000000	0.368348   
844.500000	0.320924   
845.000000	0.199143   
845.500000	0.091962   
846.000000	0.290431   
846.500000	0.437962   
847.000000	0.442750   
847.500000	0.332946   
848.000000	0.370681   
848.500000	0.311568   
849.000000	0.152265   
849.500000	0.032666   
850.000000	0.186522   
850.500000	0.293833   
851.000000	0.224795   
851.500000	0.056204   
852.000000	0.043219   
852.500000	0.169583   
853.000000	0.266522   
853.500000	0.249462   
854.000000	0.087901   
854.500000	-0.012590  
855.000000	-0.020696  
855.500000	0.113507   
856.000000	0.242340   
856.500000	0.372280   
857.000000	0.316143   
857.500000	0.078780   
858.000000	-0.157507  
858.500000	-0.168613  
859.000000	-0.059727  
859.500000	0.005848   
860.000000	-0.012431  
860.500000	0.009931   
861.000000	0.013469   
861.500000	0.046833   
862.000000	-0.044424  
862.500000	-0.005590  
863.000000	0.063666   
863.500000	0.210295   
864.000000	0.104659   
864.500000	0.041515   
865.000000	-0.006454  
865.500000	0.043606   
866.000000	-0.050068  
866.500000	-0.125696  
867.000000	-0.099893  
867.500000	0.008992   
868.000000	0.021477   
868.500000	-0.058924  
869.000000	-0.094250  
869.500000	-0.015219  
870.000000	0.079416   
870.500000	0.054083   
871.000000	-0.004431  
871.500000	-0.003916  
872.000000	0.030295   
872.500000	0.035159   
873.000000	0.036022   
873.500000	0.045128   
874.000000	0.080696   
874.500000	0.131469   
875.000000	0.120348   
875.500000	0.010371   
876.000000	-0.078280  
876.500000	-0.038348  
877.000000	0.058818   
877.500000	-0.028303  
878.000000	-0.202666  
878.500000	-0.284924  
879.000000	-0.212780  
879.500000	-0.132075  
880.000000	-0.086477  
880.500000	-0.044893  
881.000000	-0.030522  
881.500000	-0.011371  
882.000000	-0.054234  
882.500000	-0.048818  
883.000000	-0.090901  
883.500000	-0.082159  
884.000000	-0.156401  
884.500000	-0.124196  
885.000000	-0.148196  
885.500000	-0.152946  
886.000000	-0.263621  
886.500000	-0.214280  
887.000000	-0.058212  
887.500000	0.135083   
888.000000	0.099030   
888.500000	0.029666   
889.000000	0.007818   
889.500000	0.106143   
890.000000	0.138750   
890.500000	0.185636   
891.000000	0.147371   
891.500000	0.153757   
892.000000	0.047151   
892.500000	-0.020128  
893.000000	-0.096446  
893.500000	-0.116962  
894.000000	-0.150598  
894.500000	-0.150325  
895.000000	-0.156924  
895.500000	-0.205590  
896.000000	-0.233848  
896.500000	-0.245575  
897.000000	-0.170348  
897.500000	-0.066712  
898.000000	0.004393   
898.500000	-0.024409  
899.000000	-0.075492  
899.500000	0.013712   
900.000000	0.294424   
900.500000	0.671000   

