PE FL                   SPECTRUM    ASCII       PEDS        1.60        
  -1
S12R#02.SP
24/04/15
15:41:06.00
24/04/15
15:42:32.00
Jan

900.500000
1









LS55
405.00
5.00
5.00
SCAN
1
20
100
100
0
400
0
1
0
1
5
ON
900 405 
1 0 0
#HDR
-1
-1
#GR
NM

0.00002384185791015625
0.0
450.000000
0.500000
902
8
216.579409
-0.400621
#DATA
450.000000	-0.134000  
450.500000	-0.244128  
451.000000	-0.160530  
451.500000	0.006757   
452.000000	0.023606   
452.500000	0.021462   
453.000000	-0.018931  
453.500000	-0.058901  
454.000000	-0.172083  
454.500000	-0.173568  
455.000000	-0.087992  
455.500000	-0.002659  
456.000000	0.023621   
456.500000	0.064787   
457.000000	0.035477   
457.500000	-0.033015  
458.000000	-0.092015  
458.500000	-0.067272  
459.000000	-0.084234  
459.500000	-0.111303  
460.000000	-0.065318  
460.500000	0.167833   
461.000000	0.368416   
461.500000	0.372431   
462.000000	0.151424   
462.500000	0.060939   
463.000000	0.122174   
463.500000	0.168575   
464.000000	-0.123333  
464.500000	-0.400621  
465.000000	-0.386424  
465.500000	-0.056060  
466.000000	0.059651   
466.500000	-0.045757  
467.000000	-0.202977  
467.500000	-0.078780  
468.000000	0.101537   
468.500000	0.182234   
469.000000	0.090530   
469.500000	-0.075757  
470.000000	-0.129712  
470.500000	0.018416   
471.000000	0.241863   
471.500000	0.256454   
472.000000	0.045015   
472.500000	-0.149537  
473.000000	-0.181696  
473.500000	-0.122886  
474.000000	-0.163765  
474.500000	-0.141037  
475.000000	-0.182916  
475.500000	-0.154257  
476.000000	-0.213946  
476.500000	-0.117984  
477.000000	-0.047606  
477.500000	0.090916   
478.000000	0.048742   
478.500000	0.141628   
479.000000	0.222893   
479.500000	0.285500   
480.000000	0.124174   
480.500000	-0.146090  
481.000000	-0.306469  
481.500000	-0.283515  
482.000000	-0.185189  
482.500000	-0.139590  
483.000000	-0.101045  
483.500000	-0.100568  
484.000000	-0.039803  
484.500000	0.005227   
485.000000	-0.015075  
485.500000	-0.022424  
486.000000	-0.014750  
486.500000	0.032242   
487.000000	0.041575   
487.500000	-0.012431  
488.000000	-0.166871  
488.500000	-0.248295  
489.000000	-0.157840  
489.500000	0.051833   
490.000000	0.236106   
490.500000	0.172787   
491.000000	0.131310   
491.500000	0.138250   
492.000000	0.191075   
492.500000	0.122651   
493.000000	0.126371   
493.500000	0.283916   
494.000000	0.498272   
494.500000	0.588181   
495.000000	0.528454   
495.500000	0.576636   
496.000000	0.537507   
496.500000	0.420712   
497.000000	0.182712   
497.500000	0.183212   
498.000000	0.239946   
498.500000	0.455249   
499.000000	0.609348   
499.500000	0.833727   
500.000000	0.870818   
500.500000	0.891681   
501.000000	0.893840   
501.500000	0.914000   
502.000000	0.882833   
502.500000	0.844196   
503.000000	0.865454   
503.500000	0.881992   
504.000000	0.900189   
504.500000	0.850613   
505.000000	0.946242   
505.500000	1.228219   
506.000000	1.670196   
506.500000	2.004704   
507.000000	2.197946   
507.500000	2.247666   
508.000000	2.216318   
508.500000	2.133318   
509.000000	2.184621   
509.500000	2.424840   
510.000000	2.663719   
510.500000	2.822007   
511.000000	2.819833   
511.500000	2.825363   
512.000000	2.822757   
512.500000	2.827681   
513.000000	2.751287   
513.500000	2.718780   
514.000000	2.826530   
514.500000	2.959416   
515.000000	2.970121   
515.500000	2.925613   
516.000000	3.018303   
516.500000	3.175189   
517.000000	3.284189   
517.500000	3.324840   
518.000000	3.382280   
518.500000	3.413181   
519.000000	3.412856   
519.500000	3.433416   
520.000000	3.443909   
520.500000	3.344598   
521.000000	3.254901   
521.500000	3.249560   
522.000000	3.447621   
522.500000	3.696106   
523.000000	3.968795   
523.500000	4.070962   
524.000000	3.962984   
524.500000	3.663651   
525.000000	3.480318   
525.500000	3.482916   
526.000000	3.714590   
526.500000	3.951727   
527.000000	4.224303   
527.500000	4.393712   
528.000000	4.670772   
528.500000	4.942666   
529.000000	5.207772   
529.500000	5.339454   
530.000000	5.337916   
530.500000	5.632946   
531.000000	6.112484   
531.500000	6.682113   
532.000000	6.838530   
532.500000	6.967378   
533.000000	7.063181   
533.500000	7.281227   
534.000000	7.559484   
534.500000	7.662242   
535.000000	7.653500   
535.500000	7.393666   
536.000000	7.550545   
536.500000	8.278954   
537.000000	9.539871   
537.500000	10.366856  
538.000000	10.574325  
538.500000	10.472871  
539.000000	10.779530  
539.500000	11.490772  
540.000000	12.395181  
540.500000	13.132939  
541.000000	13.754363  
541.500000	13.981636  
542.000000	13.982916  
542.500000	14.077598  
543.000000	14.319060  
543.500000	14.377492  
544.000000	13.667545  
544.500000	12.620492  
545.000000	11.712803  
545.500000	11.398113  
546.000000	11.091893  
546.500000	10.272689  
547.000000	9.309727   
547.500000	8.507712   
548.000000	8.236287   
548.500000	7.926916   
549.000000	7.604689   
549.500000	6.851863   
550.000000	6.319878   
550.500000	5.772037   
551.000000	5.463371   
551.500000	5.150863   
552.000000	5.069303   
552.500000	4.947515   
553.000000	4.676719   
553.500000	4.057840   
554.000000	3.648969   
554.500000	3.394969   
555.000000	3.282181   
555.500000	3.074689   
556.000000	3.015053   
556.500000	3.058643   
557.000000	3.268060   
557.500000	3.308196   
558.000000	3.214545   
558.500000	3.245909   
559.000000	3.427659   
559.500000	3.548719   
560.000000	3.352681   
560.500000	3.130303   
561.000000	3.069310   
561.500000	3.193772   
562.000000	3.250431   
562.500000	3.390386   
563.000000	3.568378   
563.500000	3.656409   
564.000000	3.534234   
564.500000	3.265765   
565.000000	3.029901   
565.500000	2.925106   
566.000000	2.976606   
566.500000	3.018507   
567.000000	3.067189   
567.500000	2.976825   
568.000000	2.968075   
568.500000	2.926560   
569.000000	3.158878   
569.500000	3.392613   
570.000000	3.617340   
570.500000	3.426946   
571.000000	3.199287   
571.500000	3.107272   
572.000000	3.344242   
572.500000	3.613583   
573.000000	3.752522   
573.500000	3.677712   
574.000000	3.438742   
574.500000	3.437083   
575.000000	3.569000   
575.500000	3.771954   
576.000000	3.606469   
576.500000	3.512227   
577.000000	3.533636   
577.500000	3.757295   
578.000000	3.709742   
578.500000	3.547992   
579.000000	3.337212   
579.500000	3.409250   
580.000000	3.587454   
580.500000	3.749106   
581.000000	3.663166   
581.500000	3.451143   
582.000000	3.277939   
582.500000	3.360075   
583.000000	3.490992   
583.500000	3.546734   
584.000000	3.456446   
584.500000	3.450022   
585.000000	3.483757   
585.500000	3.525234   
586.000000	3.493742   
586.500000	3.489712   
587.000000	3.519659   
587.500000	3.490696   
588.000000	3.418272   
588.500000	3.441181   
589.000000	3.704212   
589.500000	4.036386   
590.000000	4.150833   
590.500000	3.929212   
591.000000	3.654431   
591.500000	3.623393   
592.000000	3.642007   
592.500000	3.742143   
593.000000	4.025166   
593.500000	4.522477   
594.000000	4.885363   
594.500000	4.910136   
595.000000	4.591878   
595.500000	4.222439   
596.000000	4.031007   
596.500000	4.147628   
597.000000	4.472000   
597.500000	4.825378   
598.000000	5.070780   
598.500000	5.276060   
599.000000	5.329098   
599.500000	5.422393   
600.000000	5.380189   
600.500000	5.402674   
601.000000	5.331401   
601.500000	5.527780   
602.000000	5.553280   
602.500000	5.736371   
603.000000	5.825250   
603.500000	6.137030   
604.000000	6.231530   
604.500000	6.441659   
605.000000	6.544234   
605.500000	6.641257   
606.000000	6.496825   
606.500000	6.562219   
607.000000	6.828128   
607.500000	7.234734   
608.000000	7.404378   
608.500000	7.366636   
609.000000	7.354696   
609.500000	7.637060   
610.000000	8.079704   
610.500000	8.490568   
611.000000	8.832393   
611.500000	9.049196   
612.000000	9.375416   
612.500000	9.588795   
613.000000	9.912204   
613.500000	10.246022  
614.000000	10.860984  
614.500000	11.271219  
615.000000	11.487250  
615.500000	11.325825  
616.000000	11.428939  
616.500000	11.741416  
617.000000	12.161181  
617.500000	12.497068  
618.000000	12.899689  
618.500000	13.513409  
619.000000	14.095643  
619.500000	14.707310  
620.000000	15.096007  
620.500000	15.780939  
621.000000	16.337674  
621.500000	16.843931  
622.000000	17.220090  
622.500000	17.836053  
623.000000	18.551462  
623.500000	19.357181  
624.000000	19.917795  
624.500000	20.333719  
625.000000	20.805939  
625.500000	21.623022  
626.000000	22.787393  
626.500000	23.951227  
627.000000	24.744522  
627.500000	25.575696  
628.000000	26.435219  
628.500000	27.634901  
629.000000	28.851553  
629.500000	30.056916  
630.000000	30.626151  
630.500000	31.927469  
631.000000	33.387484  
631.500000	34.948977  
632.000000	35.614969  
632.500000	36.647545  
633.000000	37.793113  
633.500000	39.422212  
634.000000	40.487022  
634.500000	42.106909  
635.000000	43.910560  
635.500000	45.715151  
636.000000	46.860651  
636.500000	47.959409  
637.000000	48.890992  
637.500000	50.407515  
638.000000	52.296340  
638.500000	54.890977  
639.000000	57.534106  
639.500000	59.503000  
640.000000	60.808159  
640.500000	62.648469  
641.000000	64.683409  
641.500000	66.432151  
642.000000	67.905681  
642.500000	69.822090  
643.000000	72.474833  
643.500000	75.034500  
644.000000	77.198060  
644.500000	78.683189  
645.000000	80.544060  
645.500000	82.577969  
646.000000	85.200189  
646.500000	87.106045  
647.000000	89.457689  
647.500000	92.629984  
648.000000	96.215469  
648.500000	98.984128  
649.000000	101.109719 
649.500000	103.735030 
650.000000	106.814363 
650.500000	109.404151 
651.000000	110.624871 
651.500000	111.834522 
652.000000	114.373590 
652.500000	117.919121 
653.000000	121.788356 
653.500000	125.019606 
654.000000	128.340416 
654.500000	131.487060 
655.000000	133.683931 
655.500000	135.419000 
656.000000	137.964431 
656.500000	141.674825 
657.000000	145.135174 
657.500000	147.689537 
658.000000	149.439333 
658.500000	151.352984 
659.000000	153.936780 
659.500000	156.922636 
660.000000	159.405954 
660.500000	161.678189 
661.000000	164.241659 
661.500000	167.875530 
662.000000	170.523636 
662.500000	172.307500 
663.000000	173.503340 
663.500000	176.416469 
664.000000	180.117689 
664.500000	183.087787 
665.000000	184.534946 
665.500000	185.234295 
666.000000	187.735772 
666.500000	191.227924 
667.000000	193.927219 
667.500000	194.374522 
668.000000	194.421000 
668.500000	196.317651 
669.000000	199.736189 
669.500000	202.801560 
670.000000	204.314537 
670.500000	205.178636 
671.000000	206.490151 
671.500000	207.965007 
672.000000	209.332446 
672.500000	210.115000 
673.000000	210.181401 
673.500000	209.784000 
674.000000	210.966992 
674.500000	213.222227 
675.000000	215.380340 
675.500000	215.591378 
676.000000	215.655340 
676.500000	214.840090 
677.000000	214.433492 
677.500000	213.684931 
678.000000	214.847356 
678.500000	216.216037 
679.000000	216.579409 
679.500000	214.768568 
680.000000	213.496916 
680.500000	213.701166 
681.000000	213.222621 
681.500000	210.599045 
682.000000	207.669401 
682.500000	207.308181 
683.000000	208.197954 
683.500000	206.870462 
684.000000	205.065492 
684.500000	203.763666 
685.000000	202.530666 
685.500000	199.432568 
686.000000	196.708522 
686.500000	194.311666 
687.000000	192.373446 
687.500000	189.010643 
688.000000	186.381878 
688.500000	184.220469 
689.000000	181.748227 
689.500000	177.650303 
690.000000	174.378280 
690.500000	172.485803 
691.000000	171.248409 
691.500000	168.109280 
692.000000	164.154454 
692.500000	160.781409 
693.000000	158.285477 
693.500000	155.100659 
694.000000	151.848909 
694.500000	149.273651 
695.000000	146.016295 
695.500000	140.756280 
696.000000	134.470500 
696.500000	130.295348 
697.000000	129.230045 
697.500000	127.995439 
698.000000	124.904560 
698.500000	120.258560 
699.000000	116.607000 
699.500000	113.842469 
700.000000	111.972500 
700.500000	110.440189 
701.000000	108.593727 
701.500000	105.183196 
702.000000	100.796446 
702.500000	97.070666  
703.000000	94.212560  
703.500000	91.700121  
704.000000	89.173303  
704.500000	87.382651  
705.000000	86.327522  
705.500000	84.297833  
706.000000	80.400287  
706.500000	76.631045  
707.000000	74.197499  
707.500000	73.000704  
708.000000	70.852795  
708.500000	68.446689  
709.000000	66.631704  
709.500000	65.696128  
710.000000	63.996969  
710.500000	61.712045  
711.000000	59.353749  
711.500000	57.531840  
712.000000	55.918583  
712.500000	54.198106  
713.000000	52.630840  
713.500000	51.510227  
714.000000	50.661848  
714.500000	48.546787  
715.000000	46.192348  
715.500000	44.287613  
716.000000	43.817227  
716.500000	43.034166  
717.000000	41.814393  
717.500000	40.387075  
718.000000	39.275954  
718.500000	38.134469  
719.000000	36.552537  
719.500000	35.234045  
720.000000	33.478454  
720.500000	32.291159  
721.000000	31.514356  
721.500000	31.391333  
722.000000	30.418848  
722.500000	29.610204  
723.000000	28.960962  
723.500000	28.809053  
724.000000	27.774568  
724.500000	26.913431  
725.000000	26.248704  
725.500000	26.119325  
726.000000	25.337363  
726.500000	24.279909  
727.000000	23.087545  
727.500000	22.188053  
728.000000	21.531060  
728.500000	21.189469  
729.000000	20.865446  
729.500000	20.484242  
730.000000	20.005053  
730.500000	19.162030  
731.000000	18.339053  
731.500000	17.718121  
732.000000	17.354954  
732.500000	16.844727  
733.000000	16.347734  
733.500000	16.008530  
734.000000	15.857053  
734.500000	15.532303  
735.000000	15.132212  
735.500000	14.880984  
736.000000	14.521356  
736.500000	14.219530  
737.000000	13.715393  
737.500000	13.245659  
738.000000	12.675522  
738.500000	12.440553  
739.000000	12.305787  
739.500000	12.172340  
740.000000	11.954901  
740.500000	11.651984  
741.000000	11.292356  
741.500000	10.900553  
742.000000	10.799439  
742.500000	10.719871  
743.000000	10.458825  
743.500000	10.078939  
744.000000	9.727734   
744.500000	9.691621   
745.000000	9.737856   
745.500000	9.713787   
746.000000	9.115515   
746.500000	8.462227   
747.000000	7.971272   
747.500000	7.861757   
748.000000	8.006545   
748.500000	8.270181   
749.000000	8.369931   
749.500000	8.111674   
750.000000	7.768886   
750.500000	7.618068   
751.000000	7.550666   
751.500000	7.298916   
752.000000	7.113613   
752.500000	7.079340   
753.000000	7.159924   
753.500000	7.325303   
754.000000	7.293234   
754.500000	7.162962   
755.000000	6.895651   
755.500000	6.583287   
756.000000	5.938886   
756.500000	5.466492   
757.000000	5.340393   
757.500000	5.671825   
758.000000	5.927522   
758.500000	5.881810   
759.000000	5.670416   
759.500000	5.509378   
760.000000	5.489643   
760.500000	5.437295   
761.000000	5.577007   
761.500000	5.810037   
762.000000	5.922037   
762.500000	5.447636   
763.000000	5.029924   
763.500000	5.035325   
764.000000	5.422537   
764.500000	5.311621   
765.000000	4.916310   
765.500000	4.536204   
766.000000	4.538598   
766.500000	4.487469   
767.000000	4.476113   
767.500000	4.417765   
768.000000	4.307666   
768.500000	4.211825   
769.000000	4.222553   
769.500000	4.226378   
770.000000	3.956022   
770.500000	3.634901   
771.000000	3.509484   
771.500000	3.641659   
772.000000	3.606537   
772.500000	3.614166   
773.000000	3.601204   
773.500000	3.612992   
774.000000	3.526128   
774.500000	3.566643   
775.000000	3.583666   
775.500000	3.496719   
776.000000	3.325598   
776.500000	3.182151   
777.000000	3.215962   
777.500000	3.254931   
778.000000	3.464977   
778.500000	3.425371   
779.000000	3.244310   
779.500000	2.972098   
780.000000	3.061204   
780.500000	3.235439   
781.000000	3.368530   
781.500000	3.332189   
782.000000	3.248234   
782.500000	3.299227   
783.000000	3.419939   
783.500000	3.450772   
784.000000	3.182666   
784.500000	2.952257   
785.000000	2.906121   
785.500000	2.991878   
786.000000	2.950409   
786.500000	2.864371   
787.000000	2.889977   
787.500000	2.949590   
788.000000	2.994560   
788.500000	2.990772   
789.000000	2.904962   
789.500000	2.753363   
790.000000	2.715856   
790.500000	2.881431   
791.000000	3.005659   
791.500000	2.939893   
792.000000	2.710318   
792.500000	2.450340   
793.000000	2.287189   
793.500000	2.281409   
794.000000	2.281659   
794.500000	2.346530   
795.000000	2.427878   
795.500000	2.587500   
796.000000	2.559969   
796.500000	2.505924   
797.000000	2.461537   
797.500000	2.586212   
798.000000	2.509795   
798.500000	2.239446   
799.000000	2.058189   
799.500000	2.190257   
800.000000	2.527742   
800.500000	2.635598   
801.000000	2.375507   
801.500000	2.014719   
802.000000	1.979909   
802.500000	2.213909   
803.000000	2.365242   
803.500000	2.255015   
804.000000	2.064545   
804.500000	1.999416   
805.000000	2.013757   
805.500000	1.931090   
806.000000	1.785007   
806.500000	1.708545   
807.000000	1.814318   
807.500000	1.919204   
808.000000	1.917583   
808.500000	1.753098   
809.000000	1.737962   
809.500000	1.849696   
810.000000	2.081757   
810.500000	2.100886   
811.000000	2.035825   
811.500000	1.792636   
812.000000	1.637136   
812.500000	1.534636   
813.000000	1.507492   
813.500000	1.388303   
814.000000	1.327522   
814.500000	1.368280   
815.000000	1.615045   
815.500000	1.781984   
816.000000	1.844136   
816.500000	1.697318   
817.000000	1.507280   
817.500000	1.348818   
818.000000	1.462196   
818.500000	1.682992   
819.000000	1.947439   
819.500000	2.124409   
820.000000	2.239325   
820.500000	2.202621   
821.000000	2.133886   
821.500000	1.990136   
822.000000	1.846340   
822.500000	1.820090   
823.000000	2.080462   
823.500000	2.444871   
824.000000	2.695621   
824.500000	2.608378   
825.000000	2.416613   
825.500000	2.279621   
826.000000	2.259780   
826.500000	2.165121   
827.000000	1.983060   
827.500000	1.782053   
828.000000	1.826356   
828.500000	2.006325   
829.000000	2.134606   
829.500000	2.043439   
830.000000	1.729522   
830.500000	1.482439   
831.000000	1.454924   
831.500000	1.531022   
832.000000	1.466931   
832.500000	1.230250   
833.000000	1.031484   
833.500000	0.948333   
834.000000	1.033863   
834.500000	1.148492   
835.000000	1.226454   
835.500000	1.129083   
836.000000	1.067696   
836.500000	1.001340   
837.000000	0.918606   
837.500000	0.770878   
838.000000	0.748469   
838.500000	0.815537   
839.000000	0.780507   
839.500000	0.601787   
840.000000	0.534249   
840.500000	0.608621   
841.000000	0.739121   
841.500000	0.758098   
842.000000	0.778537   
842.500000	0.797386   
843.000000	0.761431   
843.500000	0.575477   
844.000000	0.516378   
844.500000	0.532901   
845.000000	0.505151   
845.500000	0.251984   
846.000000	0.104424   
846.500000	0.210295   
847.000000	0.521681   
847.500000	0.589560   
848.000000	0.473242   
848.500000	0.378962   
849.000000	0.440840   
849.500000	0.451386   
850.000000	0.333795   
850.500000	0.197606   
851.000000	0.257727   
851.500000	0.409409   
852.000000	0.426742   
852.500000	0.345590   
853.000000	0.225825   
853.500000	0.110242   
854.000000	-0.001977  
854.500000	-0.042196  
855.000000	0.042984   
855.500000	0.181515   
856.000000	0.136750   
856.500000	0.008984   
857.000000	-0.075128  
857.500000	-0.064848  
858.000000	-0.044606  
858.500000	0.045734   
859.000000	0.122113   
859.500000	0.136575   
860.000000	0.009643   
860.500000	-0.049090  
861.000000	-0.029772  
861.500000	-0.014257  
862.000000	-0.044666  
862.500000	-0.023454  
863.000000	-0.018227  
863.500000	-0.051416  
864.000000	-0.130515  
864.500000	-0.066090  
865.000000	0.027462   
865.500000	0.150734   
866.000000	0.160257   
866.500000	0.117863   
867.000000	0.086606   
867.500000	0.112992   
868.000000	0.078181   
868.500000	0.031674   
869.000000	0.001704   
869.500000	0.006022   
870.000000	-0.038196  
870.500000	-0.066568  
871.000000	-0.008734  
871.500000	0.088424   
872.000000	0.081439   
872.500000	0.013984   
873.000000	0.008462   
873.500000	-0.060742  
874.000000	-0.187303  
874.500000	-0.346590  
875.000000	-0.317924  
875.500000	-0.185931  
876.000000	-0.047409  
876.500000	-0.018143  
877.000000	0.020227   
877.500000	0.049363   
878.000000	0.033325   
878.500000	-0.102371  
879.000000	-0.250924  
879.500000	-0.279121  
880.000000	-0.124568  
880.500000	0.019530   
881.000000	0.036977   
881.500000	-0.004636  
882.000000	0.018924   
882.500000	0.041196   
883.000000	-0.019878  
883.500000	-0.126901  
884.000000	-0.173765  
884.500000	-0.187840  
885.000000	-0.117151  
885.500000	0.057234   
886.000000	0.214068   
886.500000	0.173886   
887.000000	0.077651   
887.500000	0.043333   
888.000000	0.072363   
888.500000	-0.038969  
889.000000	-0.157340  
889.500000	-0.180530  
890.000000	-0.170030  
890.500000	-0.141977  
891.000000	-0.082621  
891.500000	0.093128   
892.000000	0.076037   
892.500000	0.030575   
893.000000	-0.066704  
893.500000	-0.000037  
894.000000	-0.058280  
894.500000	-0.076553  
895.000000	-0.087469  
895.500000	-0.061128  
896.000000	-0.105871  
896.500000	-0.120189  
897.000000	-0.056575  
897.500000	0.005287   
898.000000	-0.055181  
898.500000	-0.133825  
899.000000	-0.159674  
899.500000	-0.120007  
900.000000	-0.174621  
900.500000	-0.367999  

