PE FL                   SPECTRUM    ASCII       PEDS        1.60        
  -1
S12R#33.SP
24/04/15
16:25:18.00
24/04/15
16:26:44.00
Jan

900.500000
1









LS55
405.00
5.00
5.00
SCAN
1
20
100
100
0
400
0
1
0
1
5
ON
900 405 
1 0 0
#HDR
-1
-1
#GR
NM

0.00002384185791015625
0.0
450.000000
0.500000
902
8
170.483878
-0.420030
#DATA
450.000000	-0.134000  
450.500000	-0.081772  
451.000000	-0.070143  
451.500000	-0.028462  
452.000000	0.080977   
452.500000	0.157530   
453.000000	0.102742   
453.500000	0.031227   
454.000000	0.091810   
454.500000	0.242424   
455.000000	0.292621   
455.500000	0.139484   
456.000000	-0.040621  
456.500000	-0.205159  
457.000000	-0.187545  
457.500000	-0.171666  
458.000000	-0.031250  
458.500000	0.004068   
459.000000	0.110515   
459.500000	0.129439   
460.000000	0.086750   
460.500000	0.084946   
461.000000	0.130977   
461.500000	0.172992   
462.000000	0.004856   
462.500000	-0.101030  
463.000000	-0.117469  
463.500000	0.017969   
464.000000	-0.052757  
464.500000	-0.064613  
465.000000	0.029545   
465.500000	0.189507   
466.000000	0.103575   
466.500000	0.056886   
467.000000	0.042022   
467.500000	0.134719   
468.000000	-0.054196  
468.500000	-0.252515  
469.000000	-0.329962  
469.500000	-0.147204  
470.000000	-0.005878  
470.500000	-0.005143  
471.000000	-0.097416  
471.500000	-0.162575  
472.000000	-0.154893  
472.500000	-0.268363  
473.000000	-0.375416  
473.500000	-0.420030  
474.000000	-0.294439  
474.500000	-0.105537  
475.000000	0.036333   
475.500000	0.074674   
476.000000	-0.044780  
476.500000	-0.123234  
477.000000	-0.089545  
477.500000	0.172030   
478.000000	0.490242   
478.500000	0.652750   
479.000000	0.461500   
479.500000	0.018090   
480.000000	-0.256227  
480.500000	-0.230825  
481.000000	0.002234   
481.500000	0.202583   
482.000000	0.241946   
482.500000	0.237121   
483.000000	0.202522   
483.500000	0.241939   
484.000000	0.057818   
484.500000	-0.114757  
485.000000	-0.292189  
485.500000	-0.226280  
486.000000	-0.223568  
486.500000	-0.180492  
487.000000	-0.112651  
487.500000	0.041287   
488.000000	-0.036257  
488.500000	-0.161000  
489.000000	-0.153727  
489.500000	-0.008045  
490.000000	0.020992   
490.500000	-0.202045  
491.000000	-0.385318  
491.500000	-0.361916  
492.000000	-0.114431  
492.500000	0.172636   
493.000000	0.354696   
493.500000	0.341840   
494.000000	0.287401   
494.500000	0.299333   
495.000000	0.269909   
495.500000	0.144484   
496.000000	0.114106   
496.500000	0.355757   
497.000000	0.599621   
497.500000	0.478151   
498.000000	0.218969   
498.500000	0.220795   
499.000000	0.586015   
499.500000	0.861977   
500.000000	0.838015   
500.500000	0.755151   
501.000000	0.815045   
501.500000	0.923575   
502.000000	0.904598   
502.500000	0.912666   
503.000000	0.979083   
503.500000	1.097340   
504.000000	1.167121   
504.500000	1.271250   
505.000000	1.310045   
505.500000	1.273121   
506.000000	1.221515   
506.500000	1.397083   
507.000000	1.589590   
507.500000	1.749992   
508.000000	2.038113   
508.500000	2.330946   
509.000000	2.292462   
509.500000	1.964371   
510.000000	1.903401   
510.500000	2.137992   
511.000000	2.416742   
511.500000	2.454719   
512.000000	2.617568   
512.500000	2.908643   
513.000000	3.118022   
513.500000	3.078007   
514.000000	2.839007   
514.500000	2.797098   
515.000000	2.944128   
515.500000	3.175856   
516.000000	3.107136   
516.500000	2.891500   
517.000000	2.736378   
517.500000	2.783628   
518.000000	2.908446   
518.500000	3.019727   
519.000000	3.295530   
519.500000	3.625530   
520.000000	3.792318   
520.500000	3.574719   
521.000000	3.279204   
521.500000	3.207765   
522.000000	3.370363   
522.500000	3.565545   
523.000000	3.697204   
523.500000	3.847916   
524.000000	3.763242   
524.500000	3.728462   
525.000000	3.697803   
525.500000	3.883742   
526.000000	3.912121   
526.500000	3.909219   
527.000000	3.999325   
527.500000	4.438515   
528.000000	4.895166   
528.500000	5.155598   
529.000000	5.174674   
529.500000	5.133696   
530.000000	5.163136   
530.500000	5.208772   
531.000000	5.345462   
531.500000	5.645575   
532.000000	5.937143   
532.500000	6.356931   
533.000000	6.706416   
533.500000	6.979189   
534.000000	7.147742   
534.500000	7.400765   
535.000000	7.743780   
535.500000	8.033143   
536.000000	7.967022   
536.500000	7.932560   
537.000000	8.403287   
537.500000	9.324242   
538.000000	10.490969  
538.500000	11.286037  
539.000000	11.860181  
539.500000	12.146378  
540.000000	12.514325  
540.500000	12.825727  
541.000000	13.021045  
541.500000	12.941022  
542.000000	12.684280  
542.500000	12.361272  
543.000000	12.092083  
543.500000	12.235598  
544.000000	12.411484  
544.500000	12.568181  
545.000000	12.223984  
545.500000	11.537189  
546.000000	10.653219  
546.500000	9.697439   
547.000000	9.118499   
547.500000	8.814106   
548.000000	8.367439   
548.500000	7.611954   
549.000000	7.064295   
549.500000	6.886265   
550.000000	6.766234   
550.500000	6.305954   
551.000000	5.610590   
551.500000	5.233318   
552.000000	4.851287   
552.500000	4.380651   
553.000000	3.714318   
553.500000	3.309462   
554.000000	3.160272   
554.500000	3.123939   
555.000000	3.047098   
555.500000	3.016939   
556.000000	3.075848   
556.500000	3.108416   
557.000000	3.186401   
557.500000	3.330803   
558.000000	3.525909   
558.500000	3.486992   
559.000000	3.250060   
559.500000	2.990871   
560.000000	2.956181   
560.500000	3.097651   
561.000000	3.273189   
561.500000	3.413333   
562.000000	3.499356   
562.500000	3.445901   
563.000000	3.372878   
563.500000	3.339204   
564.000000	3.426212   
564.500000	3.389856   
565.000000	3.311666   
565.500000	3.247401   
566.000000	3.382598   
566.500000	3.447348   
567.000000	3.411386   
567.500000	3.315871   
568.000000	3.233878   
568.500000	3.292530   
569.000000	3.338393   
569.500000	3.341598   
570.000000	3.283621   
570.500000	3.336000   
571.000000	3.452318   
571.500000	3.476689   
572.000000	3.345848   
572.500000	3.251537   
573.000000	3.349704   
573.500000	3.495053   
574.000000	3.518628   
574.500000	3.460136   
575.000000	3.400212   
575.500000	3.363530   
576.000000	3.409560   
576.500000	3.501939   
577.000000	3.640893   
577.500000	3.588083   
578.000000	3.519840   
578.500000	3.388689   
579.000000	3.275674   
579.500000	3.001159   
580.000000	2.854037   
580.500000	2.811431   
581.000000	2.888484   
581.500000	3.050810   
582.000000	3.302651   
582.500000	3.528303   
583.000000	3.662916   
583.500000	3.685416   
584.000000	3.548598   
584.500000	3.277992   
585.000000	3.252659   
585.500000	3.619318   
586.000000	4.018204   
586.500000	4.159333   
587.000000	4.051075   
587.500000	3.960530   
588.000000	3.909659   
588.500000	3.940037   
589.000000	3.914825   
589.500000	3.942469   
590.000000	3.833636   
590.500000	3.787431   
591.000000	3.813856   
591.500000	4.048583   
592.000000	4.266507   
592.500000	4.414886   
593.000000	4.468098   
593.500000	4.543992   
594.000000	4.576742   
594.500000	4.508507   
595.000000	4.463621   
595.500000	4.439954   
596.000000	4.527727   
596.500000	4.781234   
597.000000	5.197303   
597.500000	5.539037   
598.000000	5.563810   
598.500000	5.380068   
599.000000	5.223121   
599.500000	5.258810   
600.000000	5.351121   
600.500000	5.278272   
601.000000	5.245143   
601.500000	5.291871   
602.000000	5.610924   
602.500000	6.061189   
603.000000	6.517931   
603.500000	6.759030   
604.000000	6.674803   
604.500000	6.639386   
605.000000	6.793121   
605.500000	7.202750   
606.000000	7.352340   
606.500000	7.402053   
607.000000	7.355090   
607.500000	7.696636   
608.000000	8.319689   
608.500000	8.832962   
609.000000	8.753545   
609.500000	8.437537   
610.000000	8.671818   
610.500000	9.433378   
611.000000	10.173212  
611.500000	10.389727  
612.000000	10.383909  
612.500000	10.683901  
613.000000	11.333901  
613.500000	11.938000  
614.000000	12.309409  
614.500000	12.830681  
615.000000	13.285318  
615.500000	13.564340  
616.000000	13.415878  
616.500000	13.637431  
617.000000	14.443992  
617.500000	15.548340  
618.000000	16.413159  
618.500000	16.735916  
619.000000	16.919250  
619.500000	17.238098  
620.000000	17.970522  
620.500000	18.409409  
621.000000	18.791189  
621.500000	19.152136  
622.000000	20.072515  
622.500000	20.712734  
623.000000	21.356863  
623.500000	22.188893  
624.000000	23.238265  
624.500000	24.422803  
625.000000	25.481015  
625.500000	26.581030  
626.000000	27.408159  
626.500000	28.237136  
627.000000	28.910901  
627.500000	29.872530  
628.000000	30.813621  
628.500000	31.782969  
629.000000	32.750409  
629.500000	33.691265  
630.000000	35.220363  
630.500000	36.840431  
631.000000	38.470606  
631.500000	39.540083  
632.000000	41.226886  
632.500000	42.997886  
633.000000	44.666280  
633.500000	45.199174  
634.000000	45.433143  
634.500000	46.510053  
635.000000	48.613674  
635.500000	50.784477  
636.000000	52.457348  
636.500000	54.248515  
637.000000	56.089181  
637.500000	57.802015  
638.000000	59.382681  
638.500000	61.033553  
639.000000	62.959492  
639.500000	64.707090  
640.000000	66.971742  
640.500000	68.463007  
641.000000	69.217121  
641.500000	69.964750  
642.000000	72.757545  
642.500000	76.274212  
643.000000	79.390515  
643.500000	80.820106  
644.000000	82.290765  
644.500000	83.793143  
645.000000	85.611280  
645.500000	87.314712  
646.000000	89.446757  
646.500000	91.782431  
647.000000	94.358015  
647.500000	96.872484  
648.000000	99.369712  
648.500000	101.749507 
649.000000	104.308325 
649.500000	106.437848 
650.000000	108.163681 
650.500000	109.475250 
651.000000	111.031007 
651.500000	112.545348 
652.000000	115.009136 
652.500000	117.361098 
653.000000	120.020719 
653.500000	121.724628 
654.000000	123.836969 
654.500000	125.470818 
655.000000	127.579909 
655.500000	128.915969 
656.000000	131.104363 
656.500000	133.506931 
657.000000	136.103166 
657.500000	137.814598 
658.000000	138.868484 
658.500000	139.776954 
659.000000	141.724106 
659.500000	144.702545 
660.000000	146.708265 
660.500000	147.079621 
661.000000	147.014348 
661.500000	148.197795 
662.000000	150.724598 
662.500000	153.556545 
663.000000	155.863166 
663.500000	158.549340 
664.000000	160.490212 
664.500000	161.555030 
665.000000	161.480537 
665.500000	161.518515 
666.000000	162.339303 
666.500000	164.315257 
667.000000	165.637469 
667.500000	165.876386 
668.000000	165.532000 
668.500000	165.704734 
669.000000	167.000772 
669.500000	167.919568 
670.000000	168.478651 
670.500000	169.274416 
671.000000	170.483878 
671.500000	170.257121 
672.000000	169.103863 
672.500000	167.820681 
673.000000	168.645325 
673.500000	169.552931 
674.000000	168.295060 
674.500000	165.296015 
675.000000	163.403083 
675.500000	163.829810 
676.000000	164.676401 
676.500000	164.750007 
677.000000	164.164689 
677.500000	163.995363 
678.000000	163.513439 
678.500000	162.116333 
679.000000	160.082946 
679.500000	157.687893 
680.000000	155.478568 
680.500000	154.306492 
681.000000	154.031204 
681.500000	153.604333 
682.000000	151.830007 
682.500000	149.978242 
683.000000	147.623469 
683.500000	145.160606 
684.000000	142.212303 
684.500000	140.958651 
685.000000	140.591068 
685.500000	139.344219 
686.000000	135.407363 
686.500000	130.124575 
687.000000	126.128651 
687.500000	123.883689 
688.000000	122.989310 
688.500000	121.609000 
689.000000	120.256174 
689.500000	117.813666 
690.000000	114.523628 
690.500000	110.925696 
691.000000	108.819833 
691.500000	106.696719 
692.000000	103.447575 
692.500000	99.351098  
693.000000	96.729962  
693.500000	94.692954  
694.000000	92.428856  
694.500000	89.158568  
695.000000	86.521378  
695.500000	83.680818  
696.000000	81.225037  
696.500000	78.427863  
697.000000	76.279143  
697.500000	74.620810  
698.000000	73.051575  
698.500000	71.418439  
699.000000	70.125590  
699.500000	68.856265  
700.000000	66.122204  
700.500000	62.447166  
701.000000	59.651575  
701.500000	58.922856  
702.000000	58.160333  
702.500000	56.193863  
703.000000	54.016924  
703.500000	52.836454  
704.000000	52.271560  
704.500000	50.706636  
705.000000	48.294984  
705.500000	46.161030  
706.000000	45.314053  
706.500000	44.334037  
707.000000	42.826856  
707.500000	41.524530  
708.000000	41.272121  
708.500000	40.629621  
709.000000	39.164371  
709.500000	37.359621  
710.000000	36.336393  
710.500000	34.928863  
711.000000	33.587871  
711.500000	32.793575  
712.000000	32.959113  
712.500000	32.491113  
713.000000	31.228659  
713.500000	29.723984  
714.000000	28.748257  
714.500000	28.231757  
715.000000	27.599045  
715.500000	26.761962  
716.000000	25.984613  
716.500000	25.317378  
717.000000	24.591371  
717.500000	23.516765  
718.000000	22.210439  
718.500000	21.084189  
719.000000	20.664643  
719.500000	20.693113  
720.000000	20.508106  
720.500000	20.164659  
721.000000	19.467962  
721.500000	18.946848  
722.000000	18.146098  
722.500000	17.427500  
723.000000	16.908431  
723.500000	16.854507  
724.000000	16.798757  
724.500000	16.583393  
725.000000	16.144840  
725.500000	15.665568  
726.000000	15.271045  
726.500000	14.401886  
727.000000	13.375674  
727.500000	12.759318  
728.000000	12.971537  
728.500000	13.162280  
729.000000	12.963893  
729.500000	12.601303  
730.000000	12.649159  
730.500000	12.677007  
731.000000	12.226083  
731.500000	11.662765  
732.000000	11.296022  
732.500000	11.192810  
733.000000	10.943030  
733.500000	10.653356  
734.000000	10.565878  
734.500000	10.550333  
735.000000	10.513280  
735.500000	10.136598  
736.000000	9.627386   
736.500000	9.224143   
737.000000	9.185212   
737.500000	9.101189   
738.000000	8.582787   
738.500000	7.986575   
739.000000	7.794689   
739.500000	8.199530   
740.000000	8.503515   
740.500000	8.174530   
741.000000	7.508651   
741.500000	7.030499   
742.000000	6.869583   
742.500000	6.828749   
743.000000	6.939500   
743.500000	7.080522   
744.000000	7.048893   
744.500000	6.844363   
745.000000	6.517348   
745.500000	6.473674   
746.000000	6.555386   
746.500000	6.664696   
747.000000	6.531257   
747.500000	6.204909   
748.000000	5.937969   
748.500000	5.602719   
749.000000	5.509045   
749.500000	5.480265   
750.000000	5.646530   
750.500000	5.469424   
751.000000	5.285053   
751.500000	5.252568   
752.000000	5.411515   
752.500000	5.259909   
753.000000	5.023560   
753.500000	5.047840   
754.000000	5.137045   
754.500000	5.253053   
755.000000	5.189590   
755.500000	4.968151   
756.000000	4.584234   
756.500000	4.444393   
757.000000	4.688537   
757.500000	5.094696   
758.000000	4.994590   
758.500000	4.342537   
759.000000	3.734818   
759.500000	3.659484   
760.000000	4.030931   
760.500000	4.247992   
761.000000	4.198189   
761.500000	4.092545   
762.000000	4.053689   
762.500000	3.934196   
763.000000	3.819886   
763.500000	3.817909   
764.000000	3.884053   
764.500000	3.877151   
765.000000	3.850181   
765.500000	3.898159   
766.000000	4.024931   
766.500000	4.001886   
767.000000	3.724946   
767.500000	3.405151   
768.000000	3.409560   
768.500000	3.632507   
769.000000	3.654075   
769.500000	3.462590   
770.000000	3.324007   
770.500000	3.206659   
771.000000	3.058219   
771.500000	3.000318   
772.000000	3.219401   
772.500000	3.507219   
773.000000	3.622318   
773.500000	3.462250   
774.000000	3.150371   
774.500000	3.099409   
775.000000	3.289863   
775.500000	3.578840   
776.000000	3.557553   
776.500000	3.316712   
777.000000	3.087053   
777.500000	2.975181   
778.000000	2.977371   
778.500000	2.970795   
779.000000	3.060946   
779.500000	3.029954   
780.000000	3.027560   
780.500000	2.934469   
781.000000	2.913909   
781.500000	2.940818   
782.000000	2.939977   
782.500000	2.860000   
783.000000	2.850833   
783.500000	2.813007   
784.000000	2.850439   
784.500000	2.775636   
785.000000	2.825469   
785.500000	2.844946   
786.000000	2.864325   
786.500000	2.633643   
787.000000	2.497886   
787.500000	2.515537   
788.000000	2.665643   
788.500000	2.693499   
789.000000	2.607772   
789.500000	2.595469   
790.000000	2.558931   
790.500000	2.542742   
791.000000	2.548075   
791.500000	2.635969   
792.000000	2.608946   
792.500000	2.646469   
793.000000	2.736984   
793.500000	2.772204   
794.000000	2.574757   
794.500000	2.465606   
795.000000	2.556128   
795.500000	2.696128   
796.000000	2.518507   
796.500000	2.180931   
797.000000	1.966371   
797.500000	2.155636   
798.000000	2.421090   
798.500000	2.612060   
799.000000	2.477159   
799.500000	2.346499   
800.000000	2.250098   
800.500000	2.269931   
801.000000	2.148454   
801.500000	2.094818   
802.000000	2.173106   
802.500000	2.402174   
803.000000	2.484409   
803.500000	2.373674   
804.000000	2.174030   
804.500000	1.882272   
805.000000	1.620878   
805.500000	1.442568   
806.000000	1.645856   
806.500000	1.890424   
807.000000	1.989734   
807.500000	1.784568   
808.000000	1.702522   
808.500000	1.661515   
809.000000	1.692053   
809.500000	1.690295   
810.000000	1.793371   
810.500000	1.798636   
811.000000	1.566393   
811.500000	1.258363   
812.000000	1.234121   
812.500000	1.314098   
813.000000	1.363363   
813.500000	1.403772   
814.000000	1.456757   
814.500000	1.496757   
815.000000	1.500446   
815.500000	1.582431   
816.000000	1.576136   
816.500000	1.658893   
817.000000	1.894916   
817.500000	2.183075   
818.000000	2.015871   
818.500000	1.500477   
819.000000	1.144537   
819.500000	1.157060   
820.000000	1.372871   
820.500000	1.715575   
821.000000	2.128674   
821.500000	2.504212   
822.000000	2.531204   
822.500000	2.331000   
823.000000	2.045575   
823.500000	2.029901   
824.000000	2.115378   
824.500000	2.283378   
825.000000	2.417303   
825.500000	2.459257   
826.000000	2.417386   
826.500000	2.430659   
827.000000	2.522810   
827.500000	2.560083   
828.000000	2.334310   
828.500000	2.008166   
829.000000	1.800606   
829.500000	1.754621   
830.000000	1.702765   
830.500000	1.661106   
831.000000	1.537378   
831.500000	1.394053   
832.000000	1.326015   
832.500000	1.198000   
833.000000	1.036439   
833.500000	0.938560   
834.000000	1.031310   
834.500000	1.134045   
835.000000	1.138712   
835.500000	1.024166   
836.000000	0.930810   
836.500000	0.928212   
837.000000	0.914204   
837.500000	0.949439   
838.000000	0.825219   
838.500000	0.764492   
839.000000	0.756886   
839.500000	0.914439   
840.000000	0.947681   
840.500000	0.900621   
841.000000	0.751166   
841.500000	0.639863   
842.000000	0.477628   
842.500000	0.433992   
843.000000	0.465583   
843.500000	0.561651   
844.000000	0.537272   
844.500000	0.540045   
845.000000	0.490916   
845.500000	0.401424   
846.000000	0.188128   
846.500000	0.081537   
847.000000	0.153325   
847.500000	0.227560   
848.000000	0.307189   
848.500000	0.422939   
849.000000	0.568856   
849.500000	0.530477   
850.000000	0.310174   
850.500000	0.106863   
851.000000	0.068681   
851.500000	0.080340   
852.000000	0.027924   
852.500000	-0.073946  
853.000000	-0.114553  
853.500000	-0.050007  
854.000000	0.089431   
854.500000	0.139250   
855.000000	0.148909   
855.500000	0.066098   
856.000000	0.025401   
856.500000	-0.017234  
857.000000	-0.010348  
857.500000	0.007068   
858.000000	0.072840   
858.500000	0.114325   
859.000000	0.114257   
859.500000	0.055537   
860.000000	-0.045803  
860.500000	-0.049401  
861.000000	-0.114022  
861.500000	-0.193295  
862.000000	-0.228401  
862.500000	-0.053621  
863.000000	0.067325   
863.500000	0.084962   
864.000000	0.070689   
864.500000	0.071818   
865.000000	0.045416   
865.500000	-0.011189  
866.000000	0.041856   
866.500000	0.110484   
867.000000	0.118886   
867.500000	0.089196   
868.000000	-0.008098  
868.500000	-0.099484  
869.000000	-0.136371  
869.500000	0.014575   
870.000000	0.078954   
870.500000	0.062083   
871.000000	-0.004962  
871.500000	0.006053   
872.000000	0.008128   
872.500000	0.011537   
873.000000	-0.002196  
873.500000	-0.046886  
874.000000	-0.152598  
874.500000	-0.233734  
875.000000	-0.234636  
875.500000	-0.139356  
876.000000	-0.038613  
876.500000	-0.028795  
877.000000	-0.049416  
877.500000	-0.082893  
878.000000	-0.080977  
878.500000	-0.072409  
879.000000	-0.015863  
879.500000	0.066848   
880.000000	0.105863   
880.500000	0.094575   
881.000000	0.020810   
881.500000	-0.063265  
882.000000	-0.224060  
882.500000	-0.256863  
883.000000	-0.184075  
883.500000	-0.033409  
884.000000	0.060840   
884.500000	0.045159   
885.000000	0.010265   
885.500000	-0.000303  
886.000000	0.017893   
886.500000	-0.018984  
887.000000	-0.120454  
887.500000	-0.190045  
888.000000	-0.185886  
888.500000	-0.125848  
889.000000	-0.142386  
889.500000	-0.131068  
890.000000	-0.125916  
890.500000	-0.059681  
891.000000	-0.027590  
891.500000	0.013356   
892.000000	0.035272   
892.500000	0.054204   
893.000000	0.026401   
893.500000	-0.086340  
894.000000	-0.228946  
894.500000	-0.210939  
895.000000	-0.116787  
895.500000	-0.030613  
896.000000	-0.097257  
896.500000	-0.042242  
897.000000	0.033893   
897.500000	0.039431   
898.000000	-0.104022  
898.500000	-0.102750  
899.000000	0.009484   
899.500000	0.078219   
900.000000	0.003969   
900.500000	-0.098000  

