PE FL                   SPECTRUM    ASCII       PEDS        1.60        
  -1
S12R#47.SP
24/04/15
16:45:16.00
24/04/15
16:46:42.00
Jan

900.500000
1









LS55
405.00
5.00
5.00
SCAN
1
20
100
100
0
400
0
1
0
1
5
ON
900 405 
1 0 0
#HDR
-1
-1
#GR
NM

0.00002384185791015625
0.0
450.000000
0.500000
902
8
151.156204
-0.608075
#DATA
450.000000	-0.001000  
450.500000	-0.436848  
451.000000	-0.608075  
451.500000	-0.477628  
452.000000	-0.179765  
452.500000	0.044863   
453.000000	0.102803   
453.500000	-0.021401  
454.000000	-0.133196  
454.500000	-0.192946  
455.000000	-0.189515  
455.500000	-0.159924  
456.000000	0.015992   
456.500000	0.207750   
457.000000	0.272363   
457.500000	0.170871   
458.000000	-0.040431  
458.500000	-0.155590  
459.000000	-0.116871  
459.500000	-0.078439  
460.000000	-0.118257  
460.500000	-0.205371  
461.000000	-0.121689  
461.500000	0.090795   
462.000000	0.261333   
462.500000	0.076871   
463.000000	-0.163590  
463.500000	-0.313992  
464.000000	-0.162484  
464.500000	0.082393   
465.000000	0.306651   
465.500000	0.426265   
466.000000	0.428545   
466.500000	0.247651   
467.000000	-0.092113  
467.500000	-0.338257  
468.000000	-0.375553  
468.500000	-0.161651  
469.000000	0.023318   
469.500000	-0.000704  
470.000000	-0.162196  
470.500000	-0.097446  
471.000000	0.153757   
471.500000	0.323659   
472.000000	0.255886   
472.500000	0.011287   
473.000000	-0.186856  
473.500000	-0.214765  
474.000000	-0.001128  
474.500000	0.154659   
475.000000	0.181181   
475.500000	0.043969   
476.000000	0.043810   
476.500000	0.069272   
477.000000	0.008840   
477.500000	-0.099431  
478.000000	-0.124318  
478.500000	-0.070121  
479.000000	-0.089795  
479.500000	-0.104977  
480.000000	-0.085356  
480.500000	-0.008121  
481.000000	-0.096515  
481.500000	-0.288204  
482.000000	-0.365098  
482.500000	-0.399878  
483.000000	-0.384886  
483.500000	-0.343030  
484.000000	-0.149454  
484.500000	-0.019946  
485.000000	0.069712   
485.500000	0.054272   
486.000000	-0.009477  
486.500000	-0.090113  
487.000000	-0.130204  
487.500000	-0.052833  
488.000000	-0.016583  
488.500000	0.039212   
489.000000	0.047492   
489.500000	0.103363   
490.000000	0.013840   
490.500000	-0.005378  
491.000000	-0.019053  
491.500000	0.045590   
492.000000	0.081787   
492.500000	0.116606   
493.000000	0.080409   
493.500000	0.117833   
494.000000	0.201530   
494.500000	0.356045   
495.000000	0.507007   
495.500000	0.488825   
496.000000	0.339378   
496.500000	0.161727   
497.000000	0.171757   
497.500000	0.236886   
498.000000	0.232128   
498.500000	0.019712   
499.000000	-0.028856  
499.500000	0.124136   
500.000000	0.484780   
500.500000	0.721606   
501.000000	0.814303   
501.500000	0.809954   
502.000000	0.891454   
502.500000	0.991666   
503.000000	1.057363   
503.500000	0.974249   
504.000000	0.820469   
504.500000	0.747303   
505.000000	0.851393   
505.500000	0.929621   
506.000000	1.120378   
506.500000	1.201924   
507.000000	1.240015   
507.500000	1.073734   
508.000000	1.108606   
508.500000	1.292022   
509.000000	1.761545   
509.500000	2.095166   
510.000000	2.239340   
510.500000	2.202696   
511.000000	2.173825   
511.500000	2.357386   
512.000000	2.614757   
512.500000	2.789946   
513.000000	2.843469   
513.500000	2.939674   
514.000000	3.012128   
514.500000	2.923030   
515.000000	2.745946   
515.500000	2.628939   
516.000000	2.817219   
516.500000	3.056848   
517.000000	3.281916   
517.500000	3.364030   
518.000000	3.548037   
518.500000	3.584742   
519.000000	3.571234   
519.500000	3.421772   
520.000000	3.362371   
520.500000	3.282727   
521.000000	3.303909   
521.500000	3.374106   
522.000000	3.468696   
522.500000	3.382045   
523.000000	3.338045   
523.500000	3.507454   
524.000000	3.730265   
524.500000	3.870159   
525.000000	3.918750   
525.500000	4.062083   
526.000000	4.257462   
526.500000	4.530015   
527.000000	4.561568   
527.500000	4.404818   
528.000000	4.278060   
528.500000	4.607522   
529.000000	5.106242   
529.500000	5.379083   
530.000000	5.380848   
530.500000	5.313909   
531.000000	5.346484   
531.500000	5.553818   
532.000000	5.810189   
532.500000	6.082234   
533.000000	6.360348   
533.500000	6.818628   
534.000000	7.138015   
534.500000	7.427250   
535.000000	7.512181   
535.500000	7.842265   
536.000000	8.152886   
536.500000	8.815734   
537.000000	9.340113   
537.500000	9.915113   
538.000000	10.300174  
538.500000	10.737780  
539.000000	11.044916  
539.500000	11.379863  
540.000000	12.085340  
540.500000	12.810242  
541.000000	13.256348  
541.500000	13.331159  
542.000000	13.485045  
542.500000	13.426257  
543.000000	13.313007  
543.500000	13.003742  
544.000000	12.827954  
544.500000	12.357878  
545.000000	11.872090  
545.500000	11.192962  
546.000000	10.723742  
546.500000	9.902681   
547.000000	9.259590   
547.500000	8.617280   
548.000000	8.290106   
548.500000	7.809136   
549.000000	7.250969   
549.500000	6.366242   
550.000000	5.544068   
550.500000	5.022159   
551.000000	4.872924   
551.500000	4.858363   
552.000000	4.587348   
552.500000	4.219484   
553.000000	3.843780   
553.500000	3.853015   
554.000000	3.815287   
554.500000	3.731681   
555.000000	3.336227   
555.500000	3.173431   
556.000000	3.145053   
556.500000	3.280643   
557.000000	3.291848   
557.500000	3.326886   
558.000000	3.224068   
558.500000	3.278234   
559.000000	3.402371   
559.500000	3.633113   
560.000000	3.648075   
560.500000	3.663522   
561.000000	3.622128   
561.500000	3.593477   
562.000000	3.404348   
562.500000	3.177409   
563.000000	3.020371   
563.500000	2.930128   
564.000000	3.026757   
564.500000	3.175734   
565.000000	3.305174   
565.500000	3.348401   
566.000000	3.404515   
566.500000	3.512454   
567.000000	3.583257   
567.500000	3.530916   
568.000000	3.471136   
568.500000	3.532204   
569.000000	3.544090   
569.500000	3.309613   
570.000000	3.026772   
570.500000	2.932924   
571.000000	3.073719   
571.500000	3.126318   
572.000000	3.152696   
572.500000	3.104598   
573.000000	3.255159   
573.500000	3.543575   
574.000000	3.853325   
574.500000	3.863825   
575.000000	3.695045   
575.500000	3.434204   
576.000000	3.350151   
576.500000	3.263227   
577.000000	3.221060   
577.500000	3.209825   
578.000000	3.190765   
578.500000	3.228098   
579.000000	3.295704   
579.500000	3.294659   
580.000000	3.342265   
580.500000	3.370810   
581.000000	3.343606   
581.500000	3.210863   
582.000000	3.177871   
582.500000	3.203318   
583.000000	3.330522   
583.500000	3.275659   
584.000000	3.286212   
584.500000	3.281825   
585.000000	3.417060   
585.500000	3.503234   
586.000000	3.529030   
586.500000	3.572696   
587.000000	3.686363   
587.500000	3.815409   
588.000000	3.957204   
588.500000	4.163030   
589.000000	4.258303   
589.500000	4.213143   
590.000000	4.012310   
590.500000	4.057575   
591.000000	4.275818   
591.500000	4.400007   
592.000000	4.402068   
592.500000	4.320121   
593.000000	4.417318   
593.500000	4.437356   
594.000000	4.397727   
594.500000	4.247621   
595.000000	4.313878   
595.500000	4.465454   
596.000000	4.696189   
596.500000	4.871946   
597.000000	5.058121   
597.500000	5.338484   
598.000000	5.546977   
598.500000	5.844371   
599.000000	5.968045   
599.500000	6.003530   
600.000000	5.714719   
600.500000	5.569742   
601.000000	5.521106   
601.500000	5.910492   
602.000000	6.342318   
602.500000	6.873325   
603.000000	6.943477   
603.500000	6.898742   
604.000000	6.989636   
604.500000	7.519303   
605.000000	7.857977   
605.500000	7.750757   
606.000000	7.399462   
606.500000	7.355090   
607.000000	7.706409   
607.500000	8.333803   
608.000000	8.887159   
608.500000	9.501712   
609.000000	9.879159   
609.500000	10.166378  
610.000000	9.855068   
610.500000	9.783068   
611.000000	10.078007  
611.500000	10.996969  
612.000000	11.527628  
612.500000	11.788712  
613.000000	11.924492  
613.500000	12.402083  
614.000000	12.936500  
614.500000	13.477318  
615.000000	13.983537  
615.500000	14.354015  
616.000000	14.476378  
616.500000	14.549015  
617.000000	14.675287  
617.500000	15.157840  
618.000000	15.689242  
618.500000	16.402371  
619.000000	17.152174  
619.500000	18.088598  
620.000000	18.740090  
620.500000	19.602356  
621.000000	20.506106  
621.500000	21.723000  
622.000000	22.344409  
622.500000	22.613136  
623.000000	22.899742  
623.500000	23.935780  
624.000000	25.379575  
624.500000	26.240871  
625.000000	26.710803  
625.500000	27.229598  
626.000000	28.525287  
626.500000	29.988712  
627.000000	31.463954  
627.500000	32.675234  
628.000000	33.755931  
628.500000	34.635439  
629.000000	35.612742  
629.500000	37.057931  
630.000000	38.485121  
630.500000	39.627545  
631.000000	40.601295  
631.500000	41.846954  
632.000000	43.438931  
632.500000	45.238659  
633.000000	46.304871  
633.500000	47.260909  
634.000000	48.099371  
634.500000	49.834348  
635.000000	51.483545  
635.500000	53.077795  
636.000000	54.064909  
636.500000	55.667787  
637.000000	57.558409  
637.500000	59.310265  
638.000000	60.817712  
638.500000	62.867371  
639.000000	65.463568  
639.500000	67.503772  
640.000000	68.505121  
640.500000	69.670363  
641.000000	71.447212  
641.500000	73.258871  
642.000000	74.385333  
642.500000	76.306780  
643.000000	79.449977  
643.500000	82.430598  
644.000000	83.658780  
644.500000	84.238909  
645.000000	86.203878  
645.500000	89.262825  
646.000000	91.624545  
646.500000	92.746136  
647.000000	93.336075  
647.500000	94.642007  
648.000000	96.715977  
648.500000	99.196386  
649.000000	100.967219 
649.500000	102.336098 
650.000000	103.192886 
650.500000	105.429719 
651.000000	107.652189 
651.500000	109.530901 
652.000000	110.624636 
652.500000	112.321037 
653.000000	114.461689 
653.500000	116.740810 
654.000000	118.244393 
654.500000	119.405871 
655.000000	120.440022 
655.500000	121.363681 
656.000000	122.385431 
656.500000	124.177219 
657.000000	126.618871 
657.500000	129.544666 
658.000000	131.587787 
658.500000	131.997590 
659.000000	132.037962 
659.500000	133.356590 
660.000000	136.438272 
660.500000	139.212242 
661.000000	140.719613 
661.500000	140.631386 
662.000000	140.954666 
662.500000	142.715537 
663.000000	145.568371 
663.500000	147.379893 
664.000000	147.427022 
664.500000	146.765212 
665.000000	146.816083 
665.500000	147.459386 
666.000000	147.610439 
666.500000	148.339469 
667.000000	149.509871 
667.500000	151.156204 
668.000000	150.998386 
668.500000	149.581015 
669.000000	147.815818 
669.500000	147.672227 
670.000000	148.465871 
670.500000	148.707522 
671.000000	148.477280 
671.500000	148.145772 
672.000000	148.464946 
672.500000	147.136719 
673.000000	145.034621 
673.500000	142.935371 
674.000000	143.088378 
674.500000	143.826916 
675.000000	143.945560 
675.500000	142.191166 
676.000000	139.856568 
676.500000	138.303560 
677.000000	138.846325 
677.500000	139.966643 
678.000000	139.779030 
678.500000	137.336621 
679.000000	134.619734 
679.500000	132.572250 
680.000000	131.073386 
680.500000	129.302954 
681.000000	127.506280 
681.500000	125.499803 
682.000000	122.753583 
682.500000	121.179810 
683.000000	119.997515 
683.500000	119.017234 
684.000000	115.745386 
684.500000	113.108053 
685.000000	110.301795 
685.500000	107.986583 
686.000000	104.449575 
686.500000	102.884469 
687.000000	101.881590 
687.500000	101.017772 
688.000000	97.950098  
688.500000	94.862037  
689.000000	91.432371  
689.500000	89.296393  
690.000000	87.499515  
690.500000	86.371583  
691.000000	84.154613  
691.500000	81.213742  
692.000000	78.758901  
692.500000	77.358924  
693.000000	76.294378  
693.500000	74.402151  
694.000000	72.308363  
694.500000	70.191621  
695.000000	68.148212  
695.500000	65.342090  
696.000000	62.190310  
696.500000	59.339000  
697.000000	57.527810  
697.500000	56.434113  
698.000000	55.383295  
698.500000	53.609939  
699.000000	51.916212  
699.500000	50.459734  
700.000000	48.940113  
700.500000	47.421909  
701.000000	46.413651  
701.500000	45.793977  
702.000000	44.539977  
702.500000	42.783500  
703.000000	40.826780  
703.500000	39.589742  
704.000000	38.605060  
704.500000	37.679863  
705.000000	36.641492  
705.500000	35.494439  
706.000000	34.678651  
706.500000	33.715901  
707.000000	32.624924  
707.500000	31.218901  
708.000000	30.523250  
708.500000	30.095265  
709.000000	29.609515  
709.500000	28.452803  
710.000000	27.428015  
710.500000	26.523901  
711.000000	25.843257  
711.500000	24.682727  
712.000000	23.751212  
712.500000	23.666946  
713.000000	23.841121  
713.500000	23.406318  
714.000000	22.469628  
714.500000	21.713568  
715.000000	21.182090  
715.500000	20.701136  
716.000000	19.987848  
716.500000	19.489916  
717.000000	19.144287  
717.500000	18.742249  
718.000000	18.212757  
718.500000	17.775931  
719.000000	17.443424  
719.500000	17.182954  
720.000000	16.461719  
720.500000	15.884560  
721.000000	15.509522  
721.500000	15.351545  
722.000000	14.777666  
722.500000	14.013757  
723.000000	13.374000  
723.500000	13.055386  
724.000000	12.811363  
724.500000	12.500886  
725.000000	12.142818  
725.500000	11.871409  
726.000000	11.544803  
726.500000	11.290484  
727.000000	10.937030  
727.500000	10.762174  
728.000000	10.412492  
728.500000	10.341848  
729.000000	10.453969  
729.500000	10.810992  
730.000000	10.808553  
730.500000	10.337712  
731.000000	9.513500   
731.500000	8.853318   
732.000000	8.575522   
732.500000	8.403068   
733.000000	8.260439   
733.500000	8.267416   
734.000000	8.628825   
734.500000	8.700295   
735.000000	8.506553   
735.500000	8.070537   
736.000000	8.146856   
736.500000	7.906265   
737.000000	7.569727   
737.500000	7.182393   
738.000000	7.307871   
738.500000	7.392553   
739.000000	7.391560   
739.500000	7.174598   
740.000000	6.856537   
740.500000	6.678174   
741.000000	6.651825   
741.500000	6.875969   
742.000000	6.782825   
742.500000	6.663287   
743.000000	6.571719   
743.500000	6.585742   
744.000000	6.104181   
744.500000	5.713090   
745.000000	5.630219   
745.500000	5.934075   
746.000000	5.743977   
746.500000	5.476303   
747.000000	5.340719   
747.500000	5.673886   
748.000000	5.756106   
748.500000	5.601045   
749.000000	5.357651   
749.500000	5.161742   
750.000000	5.066189   
750.500000	4.820454   
751.000000	4.618818   
751.500000	4.319310   
752.000000	4.418159   
752.500000	4.707363   
753.000000	4.953522   
753.500000	4.723492   
754.000000	4.438090   
754.500000	4.328886   
755.000000	4.458659   
755.500000	4.657499   
756.000000	4.899962   
756.500000	4.853916   
757.000000	4.444757   
757.500000	3.822143   
758.000000	3.543416   
758.500000	3.394628   
759.000000	3.411113   
759.500000	3.453310   
760.000000	3.693234   
760.500000	3.828651   
761.000000	3.909856   
761.500000	3.872484   
762.000000	3.958568   
762.500000	4.040333   
763.000000	4.112393   
763.500000	4.049871   
764.000000	3.935166   
764.500000	3.917196   
765.000000	4.024242   
765.500000	4.000984   
766.000000	3.819810   
766.500000	3.604053   
767.000000	3.513439   
767.500000	3.542924   
768.000000	3.697530   
768.500000	3.619295   
769.000000	3.298704   
769.500000	2.880174   
770.000000	2.805454   
770.500000	2.935530   
771.000000	3.082143   
771.500000	3.019424   
772.000000	3.018325   
772.500000	3.122757   
773.000000	3.138863   
773.500000	3.050053   
774.000000	2.999696   
774.500000	3.153810   
775.000000	3.292363   
775.500000	3.269659   
776.000000	3.130734   
776.500000	3.098772   
777.000000	3.167727   
777.500000	3.202840   
778.000000	3.227159   
778.500000	3.171295   
779.000000	3.097030   
779.500000	2.929484   
780.000000	2.795446   
780.500000	2.720151   
781.000000	2.772962   
781.500000	2.824227   
782.000000	2.866416   
782.500000	2.944545   
783.000000	2.966393   
783.500000	2.972454   
784.000000	2.970878   
784.500000	2.958462   
785.000000	2.763340   
785.500000	2.517189   
786.000000	2.406196   
786.500000	2.548386   
787.000000	2.779022   
787.500000	2.891295   
788.000000	2.888454   
788.500000	2.675818   
789.000000	2.518272   
789.500000	2.461613   
790.000000	2.614371   
790.500000	2.670393   
791.000000	2.712666   
791.500000	2.609787   
792.000000	2.543318   
792.500000	2.507030   
793.000000	2.596878   
793.500000	2.647621   
794.000000	2.538515   
794.500000	2.219090   
795.000000	1.971742   
795.500000	1.964098   
796.000000	2.241000   
796.500000	2.379265   
797.000000	2.353401   
797.500000	2.203674   
798.000000	2.267234   
798.500000	2.311613   
799.000000	2.321348   
799.500000	2.135242   
800.000000	1.861196   
800.500000	1.609734   
801.000000	1.603348   
801.500000	1.729393   
802.000000	1.708340   
802.500000	1.526068   
803.000000	1.528780   
803.500000	1.723431   
804.000000	1.826303   
804.500000	1.761166   
805.000000	1.705704   
805.500000	1.784151   
806.000000	1.923015   
806.500000	1.888325   
807.000000	1.677575   
807.500000	1.411037   
808.000000	1.461371   
808.500000	1.742757   
809.000000	1.932462   
809.500000	1.745659   
810.000000	1.429265   
810.500000	1.312250   
811.000000	1.364992   
811.500000	1.448030   
812.000000	1.392098   
812.500000	1.426325   
813.000000	1.320030   
813.500000	1.287143   
814.000000	1.293575   
814.500000	1.477530   
815.000000	1.605446   
815.500000	1.648931   
816.000000	1.656750   
816.500000	1.781303   
817.000000	1.746045   
817.500000	1.637371   
818.000000	1.440492   
818.500000	1.478037   
819.000000	1.627060   
819.500000	1.859007   
820.000000	1.785484   
820.500000	1.610659   
821.000000	1.541075   
821.500000	1.735780   
822.000000	2.069871   
822.500000	2.177416   
823.000000	2.208590   
823.500000	2.144174   
824.000000	2.230500   
824.500000	2.213431   
825.000000	2.317818   
825.500000	2.359477   
826.000000	2.517477   
826.500000	2.363833   
827.000000	2.143121   
827.500000	1.841689   
828.000000	1.678303   
828.500000	1.522696   
829.000000	1.554371   
829.500000	1.600719   
830.000000	1.630068   
830.500000	1.571196   
831.000000	1.514068   
831.500000	1.410189   
832.000000	1.228878   
832.500000	1.067727   
833.000000	1.098560   
833.500000	1.166575   
834.000000	1.150136   
834.500000	1.066969   
835.000000	1.006318   
835.500000	0.987098   
836.000000	0.985666   
836.500000	0.897280   
837.000000	0.778500   
837.500000	0.753568   
838.000000	0.855121   
838.500000	0.992689   
839.000000	1.041696   
839.500000	0.961856   
840.000000	0.862780   
840.500000	0.875446   
841.000000	0.965522   
841.500000	1.039939   
842.000000	0.824750   
842.500000	0.553310   
843.000000	0.322196   
843.500000	0.374719   
844.000000	0.448121   
844.500000	0.570363   
845.000000	0.498477   
845.500000	0.567795   
846.000000	0.549128   
846.500000	0.556174   
847.000000	0.400128   
847.500000	0.299106   
848.000000	0.204727   
848.500000	0.226598   
849.000000	0.250015   
849.500000	0.266295   
850.000000	0.193954   
850.500000	0.223833   
851.000000	0.297060   
851.500000	0.281060   
852.000000	0.040189   
852.500000	-0.052409  
853.000000	0.079212   
853.500000	0.357545   
854.000000	0.383659   
854.500000	0.264643   
855.000000	0.036628   
855.500000	-0.029840  
856.000000	0.056280   
856.500000	0.240712   
857.000000	0.240159   
857.500000	0.159765   
858.000000	0.065181   
858.500000	0.098553   
859.000000	-0.033280  
859.500000	-0.205863  
860.000000	-0.383606  
860.500000	-0.235545  
861.000000	-0.003530  
861.500000	0.192863   
862.000000	0.087136   
862.500000	-0.075075  
863.000000	-0.207295  
863.500000	-0.167727  
864.000000	-0.068477  
864.500000	-0.057287  
865.000000	-0.070257  
865.500000	-0.088060  
866.000000	-0.033151  
866.500000	-0.077583  
867.000000	-0.149924  
867.500000	-0.225378  
868.000000	-0.116250  
868.500000	-0.046659  
869.000000	-0.036946  
869.500000	-0.074757  
870.000000	-0.046734  
870.500000	0.032515   
871.000000	0.089666   
871.500000	0.112196   
872.000000	0.045030   
872.500000	-0.004272  
873.000000	-0.039803  
873.500000	-0.022416  
874.000000	-0.105295  
874.500000	-0.149984  
875.000000	-0.091803  
875.500000	0.071863   
876.000000	0.157659   
876.500000	0.061318   
877.000000	-0.075901  
877.500000	-0.139310  
878.000000	-0.126492  
878.500000	-0.086689  
879.000000	-0.009598  
879.500000	0.063212   
880.000000	0.057462   
880.500000	-0.009689  
881.000000	-0.064750  
881.500000	-0.032643  
882.000000	-0.025856  
882.500000	-0.051742  
883.000000	-0.052545  
883.500000	-0.039204  
884.000000	-0.088681  
884.500000	-0.120280  
885.000000	-0.103151  
885.500000	-0.068136  
886.000000	-0.134454  
886.500000	-0.086121  
887.000000	-0.000409  
887.500000	0.106166   
888.000000	-0.032378  
888.500000	-0.203492  
889.000000	-0.343590  
889.500000	-0.301590  
890.000000	-0.103560  
890.500000	0.035856   
891.000000	0.051674   
891.500000	-0.071969  
892.000000	-0.079575  
892.500000	-0.109189  
893.000000	-0.143272  
893.500000	-0.200409  
894.000000	-0.208007  
894.500000	-0.060583  
895.000000	0.070909   
895.500000	0.231765   
896.000000	0.207946   
896.500000	0.133621   
897.000000	0.010916   
897.500000	0.049143   
898.000000	0.084787   
898.500000	0.047856   
899.000000	-0.047946  
899.500000	0.012727   
900.000000	0.353825   
900.500000	0.838000   

