PE FL                   SPECTRUM    ASCII       PEDS        1.60        
  -1
S12R#01.SP
24/04/15
15:39:40.00
24/04/15
15:41:06.00
Jan

900.500000
1









LS55
405.00
5.00
5.00
SCAN
1
20
100
100
0
400
0
1
0
1
5
ON
900 405 
1 0 0
#HDR
-1
-1
#GR
NM

0.00002384185791015625
0.0
450.000000
0.500000
902
8
215.423189
-0.400916
#DATA
450.000000	0.064999   
450.500000	-0.203560  
451.000000	-0.328022  
451.500000	-0.363325  
452.000000	-0.347878  
452.500000	-0.252787  
453.000000	-0.023477  
453.500000	0.172446   
454.000000	0.193469   
454.500000	0.111621   
455.000000	-0.072659  
455.500000	-0.192560  
456.000000	-0.323696  
456.500000	-0.248113  
457.000000	-0.159590  
457.500000	-0.129053  
458.000000	-0.134674  
458.500000	-0.052893  
459.000000	0.045219   
459.500000	0.072386   
460.000000	0.121643   
460.500000	0.275803   
461.000000	0.406719   
461.500000	0.298090   
462.000000	0.222621   
462.500000	0.203916   
463.000000	0.232454   
463.500000	0.073106   
464.000000	-0.100901  
464.500000	-0.201409  
465.000000	-0.055962  
465.500000	0.175257   
466.000000	0.298106   
466.500000	0.111522   
467.000000	-0.128340  
467.500000	-0.077628  
468.000000	0.115090   
468.500000	0.064681   
469.000000	-0.190022  
469.500000	-0.400128  
470.000000	-0.400916  
470.500000	-0.211621  
471.000000	0.031696   
471.500000	0.174053   
472.000000	0.083280   
472.500000	-0.184818  
473.000000	-0.371666  
473.500000	-0.394643  
474.000000	-0.300477  
474.500000	-0.056818  
475.000000	0.087446   
475.500000	0.029219   
476.000000	-0.199234  
476.500000	-0.293628  
477.000000	-0.253666  
477.500000	-0.049007  
478.000000	0.064303   
478.500000	0.216090   
479.000000	0.270378   
479.500000	0.247219   
480.000000	0.104007   
480.500000	-0.015742  
481.000000	-0.141303  
481.500000	-0.171477  
482.000000	-0.223446  
482.500000	-0.184643  
483.000000	-0.077515  
483.500000	0.043750   
484.000000	0.088689   
484.500000	0.037757   
485.000000	0.015083   
485.500000	0.014530   
486.000000	0.053310   
486.500000	0.029727   
487.000000	-0.019674  
487.500000	-0.058227  
488.000000	-0.049159  
488.500000	-0.072227  
489.000000	-0.098310  
489.500000	-0.128136  
490.000000	0.043181   
490.500000	0.212068   
491.000000	0.423803   
491.500000	0.413931   
492.000000	0.451901   
492.500000	0.457159   
493.000000	0.444787   
493.500000	0.254075   
494.000000	0.074249   
494.500000	0.042848   
495.000000	0.205848   
495.500000	0.424499   
496.000000	0.582136   
496.500000	0.703583   
497.000000	0.736666   
497.500000	0.681909   
498.000000	0.565401   
498.500000	0.418515   
499.000000	0.378356   
499.500000	0.549757   
500.000000	0.854499   
500.500000	1.057439   
501.000000	1.070409   
501.500000	0.938522   
502.000000	0.869348   
502.500000	0.802598   
503.000000	0.824037   
503.500000	0.918500   
504.000000	1.031159   
504.500000	1.243060   
505.000000	1.475189   
505.500000	1.643560   
506.000000	1.593477   
506.500000	1.577719   
507.000000	1.679909   
507.500000	1.894303   
508.000000	1.883833   
508.500000	1.754075   
509.000000	1.736477   
509.500000	2.039840   
510.000000	2.602696   
510.500000	2.902204   
511.000000	2.825984   
511.500000	2.541545   
512.000000	2.585250   
512.500000	2.825689   
513.000000	3.085659   
513.500000	3.072242   
514.000000	2.937106   
514.500000	2.910128   
515.000000	3.041424   
515.500000	3.302931   
516.000000	3.393196   
516.500000	3.382000   
517.000000	3.234909   
517.500000	3.151181   
518.000000	3.126068   
518.500000	3.202075   
519.000000	3.311750   
519.500000	3.413818   
520.000000	3.424734   
520.500000	3.353234   
521.000000	3.347318   
521.500000	3.397219   
522.000000	3.498613   
522.500000	3.371053   
523.000000	3.264454   
523.500000	3.319378   
524.000000	3.670583   
524.500000	3.779136   
525.000000	3.737871   
525.500000	3.494515   
526.000000	3.585000   
526.500000	3.817507   
527.000000	4.157886   
527.500000	4.457651   
528.000000	4.853068   
528.500000	5.330492   
529.000000	5.665045   
529.500000	5.713143   
530.000000	5.525159   
530.500000	5.331409   
531.000000	5.273371   
531.500000	5.478196   
532.000000	6.172893   
532.500000	6.791431   
533.000000	7.123818   
533.500000	6.893621   
534.000000	6.970401   
534.500000	7.125916   
535.000000	7.657469   
535.500000	8.144606   
536.000000	8.806272   
536.500000	9.520090   
537.000000	10.081772  
537.500000	10.443962  
538.000000	10.851068  
538.500000	11.463643  
539.000000	11.914416  
539.500000	12.233083  
540.000000	12.683643  
540.500000	13.303446  
541.000000	13.903992  
541.500000	14.034893  
542.000000	14.236424  
542.500000	14.231553  
543.000000	14.024181  
543.500000	13.508969  
544.000000	13.184265  
544.500000	12.825454  
545.000000	12.528606  
545.500000	12.130242  
546.000000	11.700007  
546.500000	10.941568  
547.000000	10.115333  
547.500000	9.341166   
548.000000	8.737878   
548.500000	7.992424   
549.000000	7.300151   
549.500000	6.833909   
550.000000	6.477628   
550.500000	6.046666   
551.000000	5.546780   
551.500000	5.308590   
552.000000	4.921295   
552.500000	4.490499   
553.000000	3.927636   
553.500000	3.660674   
554.000000	3.425136   
554.500000	3.374818   
555.000000	3.278492   
555.500000	3.262712   
556.000000	3.231068   
556.500000	3.263712   
557.000000	3.392234   
557.500000	3.466689   
558.000000	3.454439   
558.500000	3.404628   
559.000000	3.366515   
559.500000	3.288969   
560.000000	3.083363   
560.500000	3.056439   
561.000000	3.270083   
561.500000	3.621840   
562.000000	3.589136   
562.500000	3.250757   
563.000000	2.917295   
563.500000	2.870969   
564.000000	3.007227   
564.500000	3.264007   
565.000000	3.536787   
565.500000	3.685515   
566.000000	3.571280   
566.500000	3.415568   
567.000000	3.393136   
567.500000	3.483257   
568.000000	3.518613   
568.500000	3.483166   
569.000000	3.451249   
569.500000	3.295598   
570.000000	3.093507   
570.500000	2.933545   
571.000000	2.984310   
571.500000	3.211840   
572.000000	3.448272   
572.500000	3.641189   
573.000000	3.620196   
573.500000	3.584522   
574.000000	3.459159   
574.500000	3.357318   
575.000000	3.090636   
575.500000	2.967106   
576.000000	2.996659   
576.500000	3.153121   
577.000000	3.242666   
577.500000	3.200871   
578.000000	3.182681   
578.500000	3.158098   
579.000000	3.227500   
579.500000	3.305310   
580.000000	3.494219   
580.500000	3.503393   
581.000000	3.478674   
581.500000	3.366196   
582.000000	3.410871   
582.500000	3.407181   
583.000000	3.428772   
583.500000	3.407560   
584.000000	3.303818   
584.500000	3.270727   
585.000000	3.326575   
585.500000	3.575257   
586.000000	3.572287   
586.500000	3.704560   
587.000000	3.797143   
587.500000	3.956143   
588.000000	3.747681   
588.500000	3.572265   
589.000000	3.558250   
589.500000	3.790295   
590.000000	3.990795   
590.500000	4.084765   
591.000000	4.026681   
591.500000	3.956666   
592.000000	4.033151   
592.500000	4.033060   
593.000000	3.913765   
593.500000	3.711537   
594.000000	3.911810   
594.500000	3.994128   
595.000000	4.168583   
595.500000	4.227000   
596.000000	4.669924   
596.500000	4.806750   
597.000000	4.922674   
597.500000	4.759704   
598.000000	4.760590   
598.500000	4.632257   
599.000000	4.744121   
599.500000	4.919106   
600.000000	5.158833   
600.500000	5.083522   
601.000000	5.128250   
601.500000	5.374666   
602.000000	5.914204   
602.500000	6.029606   
603.000000	5.785265   
603.500000	5.476492   
604.000000	5.608704   
604.500000	6.107204   
605.000000	6.376545   
605.500000	6.501613   
606.000000	6.674143   
606.500000	7.253166   
607.000000	7.520015   
607.500000	7.513787   
608.000000	7.156121   
608.500000	7.144962   
609.000000	7.282780   
609.500000	7.664636   
610.000000	8.181750   
610.500000	8.809500   
611.000000	9.250666   
611.500000	9.486689   
612.000000	9.616250   
612.500000	9.902090   
613.000000	10.316946  
613.500000	10.573227  
614.000000	10.491015  
614.500000	10.534378  
615.000000	10.828787  
615.500000	11.197742  
616.000000	11.379462  
616.500000	11.635083  
617.000000	12.070234  
617.500000	12.388606  
618.000000	12.777916  
618.500000	13.346757  
619.000000	14.184424  
619.500000	14.925750  
620.000000	15.502742  
620.500000	15.873969  
621.000000	16.103007  
621.500000	16.481674  
622.000000	17.025446  
622.500000	18.035325  
623.000000	19.095719  
623.500000	20.051037  
624.000000	20.448969  
624.500000	20.368856  
625.000000	20.510818  
625.500000	21.384916  
626.000000	22.970090  
626.500000	24.165128  
627.000000	24.604060  
627.500000	24.732469  
628.000000	25.605356  
628.500000	26.967227  
629.000000	28.532424  
629.500000	29.994848  
630.000000	31.474765  
630.500000	32.524106  
631.000000	33.174628  
631.500000	33.746378  
632.000000	34.960371  
632.500000	36.345159  
633.000000	37.462234  
633.500000	38.396840  
634.000000	39.822227  
634.500000	41.647666  
635.000000	43.272666  
635.500000	44.532984  
636.000000	45.689492  
636.500000	46.952181  
637.000000	48.369765  
637.500000	50.058840  
638.000000	52.177083  
638.500000	54.648674  
639.000000	57.010924  
639.500000	58.930939  
640.000000	60.231477  
640.500000	61.681363  
641.000000	63.699628  
641.500000	66.146590  
642.000000	68.153780  
642.500000	69.886500  
643.000000	71.360272  
643.500000	73.221409  
644.000000	76.050939  
644.500000	79.080863  
645.000000	81.166901  
645.500000	82.053530  
646.000000	83.714954  
646.500000	86.963356  
647.000000	91.196772  
647.500000	94.126681  
648.000000	95.240393  
648.500000	95.320030  
649.000000	96.566734  
649.500000	99.596242  
650.000000	103.266833 
650.500000	106.564871 
651.000000	108.949409 
651.500000	111.300795 
652.000000	113.479893 
652.500000	116.751818 
653.000000	120.460712 
653.500000	123.748106 
654.000000	125.838901 
654.500000	128.977166 
655.000000	132.978265 
655.500000	136.086356 
656.000000	137.192613 
656.500000	138.804280 
657.000000	142.132356 
657.500000	145.806984 
658.000000	148.288469 
658.500000	150.351348 
659.000000	152.518575 
659.500000	155.731340 
660.000000	158.749159 
660.500000	162.659166 
661.000000	166.076287 
661.500000	169.461840 
662.000000	170.501719 
662.500000	171.636946 
663.000000	173.386765 
663.500000	177.246803 
664.000000	179.783446 
664.500000	181.172712 
665.000000	182.946909 
665.500000	186.029121 
666.000000	188.676810 
666.500000	190.293386 
667.000000	191.211825 
667.500000	192.911939 
668.000000	194.162992 
668.500000	195.092946 
669.000000	196.104356 
669.500000	198.783575 
670.000000	201.259219 
670.500000	203.432742 
671.000000	204.221522 
671.500000	205.071598 
672.000000	206.463575 
672.500000	208.210318 
673.000000	208.816363 
673.500000	208.146893 
674.000000	207.729424 
674.500000	208.963545 
675.000000	211.668121 
675.500000	212.916234 
676.000000	214.181568 
676.500000	214.512219 
677.000000	215.418856 
677.500000	215.250022 
678.000000	215.356257 
678.500000	215.073356 
679.000000	215.104765 
679.500000	215.423189 
680.000000	215.267621 
680.500000	214.337234 
681.000000	212.800598 
681.500000	212.179613 
682.000000	211.680507 
682.500000	209.889181 
683.000000	207.523257 
683.500000	205.299242 
684.000000	204.522977 
684.500000	203.820530 
685.000000	202.946212 
685.500000	201.922469 
686.000000	199.994250 
686.500000	197.571621 
687.000000	194.847818 
687.500000	193.534227 
688.000000	192.113265 
688.500000	190.841765 
689.000000	187.684916 
689.500000	183.574106 
690.000000	179.704212 
690.500000	177.824742 
691.000000	176.409446 
691.500000	174.105272 
692.000000	169.757757 
692.500000	165.218037 
693.000000	160.999257 
693.500000	157.743075 
694.000000	154.194568 
694.500000	150.889515 
695.000000	147.783659 
695.500000	145.862219 
696.000000	143.978962 
696.500000	141.268840 
697.000000	137.569575 
697.500000	133.277893 
698.000000	128.814318 
698.500000	123.537340 
699.000000	118.694795 
699.500000	114.717848 
700.000000	111.908325 
700.500000	109.404287 
701.000000	107.194356 
701.500000	105.019045 
702.000000	102.285242 
702.500000	98.398424  
703.000000	94.749401  
703.500000	92.158469  
704.000000	90.623234  
704.500000	88.399204  
705.000000	86.039643  
705.500000	83.045477  
706.000000	80.801878  
706.500000	78.349621  
707.000000	75.940000  
707.500000	72.548227  
708.000000	69.820946  
708.500000	68.460121  
709.000000	67.898916  
709.500000	66.975280  
710.000000	65.161772  
710.500000	63.008363  
711.000000	60.551477  
711.500000	58.812606  
712.000000	57.252856  
712.500000	55.981250  
713.000000	54.033621  
713.500000	52.200393  
714.000000	50.473219  
714.500000	49.138984  
715.000000	48.212189  
715.500000	47.213386  
716.000000	45.773924  
716.500000	43.361128  
717.000000	41.742924  
717.500000	40.695000  
718.000000	40.025151  
718.500000	38.105909  
719.000000	36.412507  
719.500000	35.305136  
720.000000	35.059356  
720.500000	34.181833  
721.000000	32.902462  
721.500000	32.015484  
722.000000	31.516765  
722.500000	30.920500  
723.000000	29.879075  
723.500000	28.781257  
724.000000	27.971318  
724.500000	27.287325  
725.000000	26.851318  
725.500000	26.355659  
726.000000	25.906007  
726.500000	25.157712  
727.000000	24.586098  
727.500000	23.668856  
728.000000	22.508621  
728.500000	21.404151  
729.000000	20.840234  
729.500000	20.530424  
730.000000	19.886492  
730.500000	19.247257  
731.000000	18.895712  
731.500000	18.869787  
732.000000	18.371363  
732.500000	17.807181  
733.000000	17.103719  
733.500000	16.554378  
734.000000	16.020196  
734.500000	15.664901  
735.000000	15.375810  
735.500000	15.142825  
736.000000	14.740416  
736.500000	14.126106  
737.000000	13.617280  
737.500000	13.346878  
738.000000	13.446659  
738.500000	13.198113  
739.000000	12.739924  
739.500000	12.140287  
740.000000	11.773075  
740.500000	11.322393  
741.000000	11.025280  
741.500000	10.795250  
742.000000	10.764909  
742.500000	10.849378  
743.000000	10.866386  
743.500000	10.849651  
744.000000	10.607219  
744.500000	10.213227  
745.000000	9.713113   
745.500000	9.431348   
746.000000	9.127659   
746.500000	9.263295   
747.000000	9.449621   
747.500000	9.654454   
748.000000	9.339553   
748.500000	8.774098   
749.000000	8.114106   
749.500000	7.742530   
750.000000	7.542060   
750.500000	7.363446   
751.000000	7.123803   
751.500000	6.727303   
752.000000	6.652431   
752.500000	6.814848   
753.000000	7.040022   
753.500000	7.090553   
754.000000	6.828166   
754.500000	6.601075   
755.000000	6.523143   
755.500000	6.710606   
756.000000	6.513219   
756.500000	6.237295   
757.000000	5.940924   
757.500000	5.911810   
758.000000	5.635287   
758.500000	5.724954   
759.000000	5.845340   
759.500000	5.981575   
760.000000	5.475075   
760.500000	5.245265   
761.000000	5.203424   
761.500000	5.479227   
762.000000	5.305416   
762.500000	5.159803   
763.000000	4.929454   
763.500000	4.977348   
764.000000	4.959575   
764.500000	4.973393   
765.000000	4.955651   
765.500000	5.017295   
766.000000	4.891492   
766.500000	4.444992   
767.000000	4.036924   
767.500000	4.090159   
768.000000	4.430878   
768.500000	4.612719   
769.000000	4.419780   
769.500000	4.178515   
770.000000	4.108363   
770.500000	4.109757   
771.000000	3.995833   
771.500000	3.815530   
772.000000	3.772825   
772.500000	3.789560   
773.000000	3.785121   
773.500000	3.651196   
774.000000	3.558136   
774.500000	3.631583   
775.000000	3.685325   
775.500000	3.652265   
776.000000	3.554287   
776.500000	3.548159   
777.000000	3.516916   
777.500000	3.503696   
778.000000	3.507151   
778.500000	3.573613   
779.000000	3.637356   
779.500000	3.581795   
780.000000	3.453007   
780.500000	3.237303   
781.000000	2.997606   
781.500000	2.890401   
782.000000	2.950310   
782.500000	3.015628   
783.000000	3.142257   
783.500000	3.277606   
784.000000	3.357484   
784.500000	3.242522   
785.000000	3.088681   
785.500000	3.056121   
786.000000	3.062568   
786.500000	3.039037   
787.000000	2.995553   
787.500000	3.052537   
788.000000	3.065287   
788.500000	3.007303   
789.000000	2.787431   
789.500000	2.617143   
790.000000	2.523242   
790.500000	2.598424   
791.000000	2.709606   
791.500000	2.693022   
792.000000	2.552303   
792.500000	2.397303   
793.000000	2.287893   
793.500000	2.304280   
794.000000	2.511757   
794.500000	2.694356   
795.000000	2.748727   
795.500000	2.622363   
796.000000	2.501196   
796.500000	2.393030   
797.000000	2.303060   
797.500000	2.184469   
798.000000	2.241840   
798.500000	2.292931   
799.000000	2.362613   
799.500000	2.349045   
800.000000	2.382878   
800.500000	2.303000   
801.000000	2.153022   
801.500000	2.048977   
802.000000	2.126363   
802.500000	2.186446   
803.000000	2.127924   
803.500000	1.986583   
804.000000	1.830378   
804.500000	1.632750   
805.000000	1.543530   
805.500000	1.595969   
806.000000	1.840424   
806.500000	1.899068   
807.000000	1.893757   
807.500000	1.775825   
808.000000	1.728098   
808.500000	1.649969   
809.000000	1.725984   
809.500000	1.787507   
810.000000	1.825280   
810.500000	1.579037   
811.000000	1.404969   
811.500000	1.432621   
812.000000	1.609287   
812.500000	1.583856   
813.000000	1.427219   
813.500000	1.321712   
814.000000	1.415371   
814.500000	1.513446   
815.000000	1.641151   
815.500000	1.760719   
816.000000	1.799477   
816.500000	1.712863   
817.000000	1.599469   
817.500000	1.571954   
818.000000	1.631045   
818.500000	1.693356   
819.000000	1.641174   
819.500000	1.559325   
820.000000	1.482825   
820.500000	1.674272   
821.000000	2.038924   
821.500000	2.395454   
822.000000	2.545787   
822.500000	2.553303   
823.000000	2.463484   
823.500000	2.378833   
824.000000	2.369310   
824.500000	2.477696   
825.000000	2.579106   
825.500000	2.538719   
826.000000	2.544098   
826.500000	2.332454   
827.000000	2.022863   
827.500000	1.676484   
828.000000	1.727090   
828.500000	1.841439   
829.000000	1.970121   
829.500000	1.865287   
830.000000	1.817265   
830.500000	1.651583   
831.000000	1.427757   
831.500000	1.232310   
832.000000	1.152484   
832.500000	1.151053   
833.000000	1.155659   
833.500000	1.108583   
834.000000	1.014795   
834.500000	1.005409   
835.000000	1.025174   
835.500000	1.043242   
836.000000	1.014053   
836.500000	1.042772   
837.000000	1.098977   
837.500000	1.104196   
838.000000	1.015265   
838.500000	0.969053   
839.000000	0.958477   
839.500000	0.995287   
840.000000	0.955416   
840.500000	0.836060   
841.000000	0.580886   
841.500000	0.345787   
842.000000	0.297219   
842.500000	0.546045   
843.000000	0.845484   
843.500000	0.959515   
844.000000	0.764969   
844.500000	0.546196   
845.000000	0.492651   
845.500000	0.587681   
846.000000	0.558143   
846.500000	0.442325   
847.000000	0.290628   
847.500000	0.261848   
848.000000	0.227954   
848.500000	0.207098   
849.000000	0.144992   
849.500000	0.103553   
850.000000	0.062628   
850.500000	0.109098   
851.000000	0.173234   
851.500000	0.230848   
852.000000	0.215000   
852.500000	0.102212   
853.000000	0.021583   
853.500000	0.103992   
854.000000	0.296780   
854.500000	0.390772   
855.000000	0.293159   
855.500000	0.132500   
856.000000	0.038833   
856.500000	0.008507   
857.000000	0.018439   
857.500000	0.010227   
858.000000	0.004393   
858.500000	0.006477   
859.000000	0.133196   
859.500000	0.194924   
860.000000	0.196196   
860.500000	0.103946   
861.000000	0.079765   
861.500000	0.036977   
862.000000	0.016750   
862.500000	-0.053363  
863.000000	-0.080045  
863.500000	-0.167484  
864.000000	-0.100575  
864.500000	0.002893   
865.000000	0.072856   
865.500000	-0.060409  
866.000000	-0.111606  
866.500000	-0.059924  
867.000000	0.045053   
867.500000	0.002507   
868.000000	-0.076696  
868.500000	-0.066590  
869.000000	-0.041696  
869.500000	-0.061363  
870.000000	-0.119424  
870.500000	-0.098765  
871.000000	-0.058803  
871.500000	-0.044871  
872.000000	0.006689   
872.500000	0.044136   
873.000000	0.033068   
873.500000	-0.121030  
874.000000	-0.199537  
874.500000	-0.170772  
875.000000	-0.081106  
875.500000	-0.146030  
876.000000	-0.220886  
876.500000	-0.239340  
877.000000	-0.163795  
877.500000	-0.115174  
878.000000	-0.131446  
878.500000	-0.167477  
879.000000	-0.103848  
879.500000	0.001803   
880.000000	0.065121   
880.500000	-0.044772  
881.000000	-0.146825  
881.500000	-0.123007  
882.000000	-0.007272  
882.500000	0.074636   
883.000000	0.082068   
883.500000	0.033916   
884.000000	-0.136340  
884.500000	-0.233621  
885.000000	-0.197484  
885.500000	-0.070401  
886.000000	-0.084969  
886.500000	-0.133174  
887.000000	-0.114462  
887.500000	-0.045295  
888.000000	0.009704   
888.500000	0.059583   
889.000000	0.127325   
889.500000	0.091636   
890.000000	-0.046636  
890.500000	-0.042227  
891.000000	0.104590   
891.500000	0.222939   
892.000000	0.105363   
892.500000	-0.115787  
893.000000	-0.210840  
893.500000	-0.128969  
894.000000	0.042984   
894.500000	0.038515   
895.000000	-0.093477  
895.500000	-0.270045  
896.000000	-0.223075  
896.500000	-0.098090  
897.000000	-0.002121  
897.500000	-0.010143  
898.000000	-0.027863  
898.500000	-0.027295  
899.000000	-0.019575  
899.500000	-0.005348  
900.000000	-0.029227  
900.500000	-0.097999  

