PE FL                   SPECTRUM    ASCII       PEDS        1.60        
  -1
S12R#59.SP
24/04/15
17:02:23.00
24/04/15
17:03:49.00
Jan

900.500000
1









LS55
405.00
5.00
5.00
SCAN
1
20
100
100
0
400
0
1
0
1
5
ON
900 405 
1 0 0
#HDR
-1
-1
#GR
NM

0.00002384185791015625
0.0
450.000000
0.500000
902
8
144.816939
-0.571628
#DATA
450.000000	0.562000   
450.500000	0.306909   
451.000000	0.101401   
451.500000	-0.010045  
452.000000	-0.037159  
452.500000	-0.037651  
453.000000	-0.068371  
453.500000	-0.147666  
454.000000	-0.284446  
454.500000	-0.388946  
455.000000	-0.422000  
455.500000	-0.265946  
456.000000	-0.105681  
456.500000	-0.006803  
457.000000	-0.028136  
457.500000	-0.052257  
458.000000	-0.162439  
458.500000	-0.196878  
459.000000	-0.241530  
459.500000	-0.197068  
460.000000	-0.313310  
460.500000	-0.296143  
461.000000	-0.276401  
461.500000	-0.078030  
462.000000	-0.121659  
462.500000	-0.137977  
463.000000	-0.250651  
463.500000	-0.217787  
464.000000	-0.258500  
464.500000	-0.249030  
465.000000	-0.259750  
465.500000	-0.135113  
466.000000	-0.000204  
466.500000	0.002954   
467.000000	-0.035575  
467.500000	-0.090022  
468.000000	-0.077939  
468.500000	-0.130742  
469.000000	-0.153704  
469.500000	-0.117378  
470.000000	0.039416   
470.500000	0.147393   
471.000000	0.153318   
471.500000	0.047431   
472.000000	-0.156371  
472.500000	-0.253712  
473.000000	-0.253772  
473.500000	-0.165166  
474.000000	-0.059674  
474.500000	0.125500   
475.000000	0.246568   
475.500000	0.145643   
476.000000	-0.173303  
476.500000	-0.499727  
477.000000	-0.571628  
477.500000	-0.510310  
478.000000	-0.340424  
478.500000	-0.255886  
479.000000	-0.080075  
479.500000	0.040871   
480.000000	0.168606   
480.500000	0.045053   
481.000000	-0.172439  
481.500000	-0.352886  
482.000000	-0.319333  
482.500000	-0.209977  
483.000000	-0.149030  
483.500000	-0.077159  
484.000000	0.016628   
484.500000	0.073219   
485.000000	-0.012363  
485.500000	-0.066219  
486.000000	-0.026696  
486.500000	-0.039803  
487.000000	-0.183159  
487.500000	-0.282431  
488.000000	-0.231522  
488.500000	-0.080325  
489.000000	-0.008712  
489.500000	0.123045   
490.000000	0.247121   
490.500000	0.146712   
491.000000	-0.140007  
491.500000	-0.400469  
492.000000	-0.387113  
492.500000	-0.204833  
493.000000	0.084530   
493.500000	0.272803   
494.000000	0.422545   
494.500000	0.359568   
495.000000	0.208795   
495.500000	0.103431   
496.000000	0.057734   
496.500000	0.240628   
497.000000	0.425363   
497.500000	0.575651   
498.000000	0.558446   
498.500000	0.627636   
499.000000	0.679007   
499.500000	0.752878   
500.000000	0.669545   
500.500000	0.621189   
501.000000	0.605143   
501.500000	0.599924   
502.000000	0.582143   
502.500000	0.621560   
503.000000	0.808772   
503.500000	1.025257   
504.000000	1.158757   
504.500000	1.120333   
505.000000	1.141037   
505.500000	1.192772   
506.000000	1.397787   
506.500000	1.331674   
507.000000	1.290750   
507.500000	1.263939   
508.000000	1.629901   
508.500000	2.090204   
509.000000	2.554537   
509.500000	2.615219   
510.000000	2.373810   
510.500000	2.024818   
511.000000	1.953022   
511.500000	2.243121   
512.000000	2.639780   
512.500000	2.863560   
513.000000	2.929772   
513.500000	2.924310   
514.000000	3.031765   
514.500000	3.107469   
515.000000	3.219954   
515.500000	3.276606   
516.000000	3.230348   
516.500000	3.199689   
517.000000	3.350060   
517.500000	3.668128   
518.000000	3.765303   
518.500000	3.529704   
519.000000	3.168280   
519.500000	3.033303   
520.000000	3.084568   
520.500000	3.080598   
521.000000	2.934962   
521.500000	2.830265   
522.000000	2.975386   
522.500000	3.475560   
523.000000	4.021613   
523.500000	4.396295   
524.000000	4.286484   
524.500000	4.086878   
525.000000	3.899750   
525.500000	3.840924   
526.000000	3.776712   
526.500000	3.810439   
527.000000	4.136522   
527.500000	4.475681   
528.000000	4.691128   
528.500000	4.586780   
529.000000	4.625954   
529.500000	4.685287   
530.000000	5.071431   
530.500000	5.558484   
531.000000	5.979833   
531.500000	6.102196   
532.000000	6.018325   
532.500000	6.034886   
533.000000	6.232818   
533.500000	6.602242   
534.000000	6.864469   
534.500000	7.229446   
535.000000	7.422537   
535.500000	7.838446   
536.000000	8.260287   
536.500000	8.776583   
537.000000	9.168257   
537.500000	9.738083   
538.000000	10.315545  
538.500000	10.980454  
539.000000	11.577742  
539.500000	12.056053  
540.000000	12.235454  
540.500000	12.460848  
541.000000	13.045598  
541.500000	13.770401  
542.000000	13.818863  
542.500000	13.340621  
543.000000	12.798553  
543.500000	12.622431  
544.000000	12.342393  
544.500000	12.037530  
545.000000	11.632734  
545.500000	11.350803  
546.000000	10.786954  
546.500000	9.974636   
547.000000	9.082931   
547.500000	8.593409   
548.000000	8.418378   
548.500000	8.062575   
549.000000	7.419015   
549.500000	6.629212   
550.000000	6.011446   
550.500000	5.477409   
551.000000	5.100015   
551.500000	4.693143   
552.000000	4.322954   
552.500000	3.889386   
553.000000	3.628378   
553.500000	3.531287   
554.000000	3.622901   
554.500000	3.654219   
555.000000	3.536500   
555.500000	3.239537   
556.000000	3.097893   
556.500000	3.057060   
557.000000	3.055227   
557.500000	3.044621   
558.000000	3.241833   
558.500000	3.375378   
559.000000	3.374810   
559.500000	3.248492   
560.000000	3.294651   
560.500000	3.355227   
561.000000	3.294348   
561.500000	3.022280   
562.000000	2.737166   
562.500000	2.793454   
563.000000	3.007318   
563.500000	3.266537   
564.000000	3.148090   
564.500000	3.086848   
565.000000	2.983378   
565.500000	3.088136   
566.000000	3.145462   
566.500000	3.348621   
567.000000	3.380507   
567.500000	3.269568   
568.000000	3.060954   
568.500000	3.014166   
569.000000	3.145249   
569.500000	3.289098   
570.000000	3.406325   
570.500000	3.397734   
571.000000	3.286098   
571.500000	3.191204   
572.000000	3.149325   
572.500000	3.115037   
573.000000	3.107795   
573.500000	3.141848   
574.000000	3.296727   
574.500000	3.421621   
575.000000	3.415242   
575.500000	3.306340   
576.000000	3.183045   
576.500000	3.022689   
577.000000	3.002303   
577.500000	3.249613   
578.000000	3.683234   
578.500000	3.802901   
579.000000	3.559704   
579.500000	3.184568   
580.000000	3.185295   
580.500000	3.254742   
581.000000	3.357431   
581.500000	3.357454   
582.000000	3.531939   
582.500000	3.574060   
583.000000	3.478181   
583.500000	3.266825   
584.000000	3.251159   
584.500000	3.540492   
585.000000	3.913098   
585.500000	4.057780   
586.000000	3.993848   
586.500000	3.878348   
587.000000	3.845462   
587.500000	3.803969   
588.000000	3.865196   
588.500000	3.887007   
589.000000	4.007098   
589.500000	3.947439   
590.000000	4.040893   
590.500000	4.070007   
591.000000	4.202568   
591.500000	4.238765   
592.000000	4.385727   
592.500000	4.434462   
593.000000	4.408371   
593.500000	4.302772   
594.000000	4.362189   
594.500000	4.767863   
595.000000	5.180446   
595.500000	5.322916   
596.000000	5.141340   
596.500000	5.111136   
597.000000	5.191962   
597.500000	5.314325   
598.000000	5.180462   
598.500000	5.214606   
599.000000	5.501787   
599.500000	6.085636   
600.000000	6.377386   
600.500000	6.383545   
601.000000	6.316810   
601.500000	6.615431   
602.000000	7.085992   
602.500000	7.379810   
603.000000	7.357856   
603.500000	7.234833   
604.000000	7.271113   
604.500000	7.551825   
605.000000	8.058272   
605.500000	8.648053   
606.000000	8.913454   
606.500000	9.224795   
607.000000	9.448833   
607.500000	9.807022   
608.000000	9.689825   
608.500000	9.796318   
609.000000	10.151696  
609.500000	10.991409  
610.000000	11.339772  
610.500000	11.378325  
611.000000	11.235280  
611.500000	11.457515  
612.000000	11.967712  
612.500000	12.701151  
613.000000	13.488651  
613.500000	14.135704  
614.000000	14.462143  
614.500000	14.602545  
615.000000	14.856719  
615.500000	15.355628  
616.000000	16.066295  
616.500000	16.981674  
617.000000	17.969856  
617.500000	18.685363  
618.000000	19.211871  
618.500000	19.413378  
619.000000	19.678772  
619.500000	20.300674  
620.000000	21.318000  
620.500000	22.451121  
621.000000	23.101068  
621.500000	23.740651  
622.000000	24.382128  
622.500000	25.298916  
623.000000	25.832901  
623.500000	26.665000  
624.000000	27.591462  
624.500000	28.801257  
625.000000	29.885522  
625.500000	30.795295  
626.000000	31.349750  
626.500000	32.597136  
627.000000	34.250583  
627.500000	35.979681  
628.000000	36.992424  
628.500000	38.234265  
629.000000	39.432833  
629.500000	40.732250  
630.000000	41.765303  
630.500000	42.752545  
631.000000	44.051537  
631.500000	45.277295  
632.000000	47.159045  
632.500000	48.611871  
633.000000	50.119340  
633.500000	51.006325  
634.000000	52.898007  
634.500000	54.714810  
635.000000	56.799780  
635.500000	58.225507  
636.000000	60.106780  
636.500000	62.292424  
637.000000	64.074181  
637.500000	64.865848  
638.000000	65.302030  
638.500000	66.972053  
639.000000	69.359840  
639.500000	71.283196  
640.000000	72.696553  
640.500000	73.986969  
641.000000	75.979833  
641.500000	78.095954  
642.000000	81.207727  
642.500000	83.565803  
643.000000	85.698674  
643.500000	86.271037  
644.000000	87.220454  
644.500000	87.167553  
645.000000	88.082265  
645.500000	90.390962  
646.000000	94.820295  
646.500000	97.979833  
647.000000	99.521931  
647.500000	99.965606  
648.000000	101.380159 
648.500000	103.590583 
649.000000	106.021401 
649.500000	108.054734 
650.000000	108.947007 
650.500000	109.418378 
651.000000	110.116969 
651.500000	112.184227 
652.000000	114.482090 
652.500000	117.511818 
653.000000	119.074106 
653.500000	119.922795 
654.000000	119.823515 
654.500000	121.203780 
655.000000	122.966083 
655.500000	124.996575 
656.000000	125.803977 
656.500000	126.903946 
657.000000	127.945075 
657.500000	129.624871 
658.000000	131.347000 
658.500000	132.355128 
659.000000	131.862651 
659.500000	131.389856 
660.000000	132.648371 
660.500000	135.011272 
661.000000	136.434628 
661.500000	135.756507 
662.000000	135.988522 
662.500000	137.684060 
663.000000	140.270553 
663.500000	141.549348 
664.000000	142.584280 
664.500000	142.281219 
665.000000	141.936257 
665.500000	140.875030 
666.000000	141.088212 
666.500000	142.343151 
667.000000	143.773295 
667.500000	144.319742 
668.000000	144.347704 
668.500000	144.407583 
669.000000	144.673803 
669.500000	144.816939 
670.000000	143.155151 
670.500000	140.845575 
671.000000	139.270750 
671.500000	138.996303 
672.000000	139.516325 
672.500000	139.532878 
673.000000	139.181803 
673.500000	138.284484 
674.000000	136.747121 
674.500000	134.219992 
675.000000	132.208022 
675.500000	131.428250 
676.000000	131.502878 
676.500000	130.945257 
677.000000	128.775090 
677.500000	126.076098 
678.000000	123.970272 
678.500000	123.097045 
679.000000	122.174000 
679.500000	120.589393 
680.000000	117.433037 
680.500000	114.417280 
681.000000	112.328174 
681.500000	111.487030 
682.000000	109.802196 
682.500000	108.163128 
683.000000	105.792750 
683.500000	104.502439 
684.000000	102.409424 
684.500000	100.074840 
685.000000	96.252795  
685.500000	93.458310  
686.000000	91.424250  
686.500000	90.540977  
687.000000	88.442507  
687.500000	84.870553  
688.000000	81.585280  
688.500000	79.944969  
689.000000	79.571257  
689.500000	78.444621  
690.000000	76.340712  
690.500000	73.504431  
691.000000	71.090840  
691.500000	69.068196  
692.000000	67.817878  
692.500000	66.921181  
693.000000	64.991340  
693.500000	62.037863  
694.000000	59.380840  
694.500000	57.576757  
695.000000	56.007712  
695.500000	54.587840  
696.000000	53.338060  
696.500000	52.461909  
697.000000	50.704371  
697.500000	48.789439  
698.000000	47.028666  
698.500000	46.265098  
699.000000	45.464787  
699.500000	45.057128  
700.000000	43.880575  
700.500000	42.044446  
701.000000	39.765666  
701.500000	38.081424  
702.000000	37.171681  
702.500000	36.393325  
703.000000	35.356537  
703.500000	33.984053  
704.000000	32.765113  
704.500000	31.590522  
705.000000	30.848401  
705.500000	30.391681  
706.000000	29.832272  
706.500000	28.818159  
707.000000	27.850295  
707.500000	27.230772  
708.000000	26.750060  
708.500000	25.959121  
709.000000	25.107318  
709.500000	24.725795  
710.000000	24.284393  
710.500000	23.142712  
711.000000	22.033893  
711.500000	21.564492  
712.000000	21.383348  
712.500000	20.556083  
713.000000	19.301537  
713.500000	18.406295  
714.000000	18.175439  
714.500000	18.159984  
715.000000	17.875848  
715.500000	17.457189  
716.000000	16.636765  
716.500000	16.158242  
717.000000	15.859606  
717.500000	15.978553  
718.000000	15.854825  
718.500000	15.826060  
719.000000	15.487151  
719.500000	15.135840  
720.000000	14.501833  
720.500000	13.825409  
721.000000	13.431386  
721.500000	13.267553  
722.000000	13.237363  
722.500000	12.624234  
723.000000	11.704621  
723.500000	10.945909  
724.000000	11.041022  
724.500000	11.371454  
725.000000	11.378590  
725.500000	10.962136  
726.000000	10.489704  
726.500000	10.218522  
727.000000	10.043893  
727.500000	9.914060   
728.000000	9.599863   
728.500000	9.369083   
729.000000	9.108280   
729.500000	9.076159   
730.000000	8.952643   
730.500000	8.745886   
731.000000	8.454863   
731.500000	8.379901   
732.000000	8.401742   
732.500000	8.202356   
733.000000	7.723401   
733.500000	7.304219   
734.000000	7.232621   
734.500000	7.341916   
735.000000	7.316053   
735.500000	7.383856   
736.000000	7.340287   
736.500000	7.525242   
737.000000	7.359227   
737.500000	7.241303   
738.000000	6.686719   
738.500000	6.310257   
739.000000	6.088500   
739.500000	6.415007   
740.000000	6.721931   
740.500000	6.792128   
741.000000	6.476227   
741.500000	6.126780   
742.000000	5.836098   
742.500000	5.659393   
743.000000	5.540946   
743.500000	5.536128   
744.000000	5.334454   
744.500000	5.246780   
745.000000	5.273606   
745.500000	5.550257   
746.000000	5.522583   
746.500000	5.320462   
747.000000	5.093424   
747.500000	4.979068   
748.000000	4.669780   
748.500000	4.430719   
749.000000	4.499000   
749.500000	4.756348   
750.000000	4.834530   
750.500000	4.555484   
751.000000	4.275060   
751.500000	4.124931   
752.000000	4.243583   
752.500000	4.422439   
753.000000	4.560462   
753.500000	4.248704   
754.000000	3.936742   
754.500000	3.820060   
755.000000	3.860348   
755.500000	3.734348   
756.000000	3.694196   
756.500000	3.772727   
757.000000	3.903909   
757.500000	3.790477   
758.000000	3.712939   
758.500000	3.807356   
759.000000	4.029871   
759.500000	4.099598   
760.000000	4.040037   
760.500000	3.819060   
761.000000	3.478265   
761.500000	3.301999   
762.000000	3.291712   
762.500000	3.417545   
763.000000	3.558446   
763.500000	3.578553   
764.000000	3.604409   
764.500000	3.574037   
765.000000	3.579409   
765.500000	3.408939   
766.000000	3.404878   
766.500000	3.521166   
767.000000	3.759916   
767.500000	3.696621   
768.000000	3.528507   
768.500000	3.224234   
769.000000	3.243742   
769.500000	3.297977   
770.000000	3.614757   
770.500000	3.489045   
771.000000	3.212310   
771.500000	2.781590   
772.000000	2.852712   
772.500000	3.014234   
773.000000	3.134833   
773.500000	3.052249   
774.000000	2.960484   
774.500000	2.999659   
775.000000	3.048909   
775.500000	3.125871   
776.000000	3.102757   
776.500000	3.133128   
777.000000	3.173295   
777.500000	3.193583   
778.000000	3.184719   
778.500000	2.967696   
779.000000	2.648606   
779.500000	2.343992   
780.000000	2.361689   
780.500000	2.643568   
781.000000	2.909969   
781.500000	2.928848   
782.000000	2.802462   
782.500000	2.705727   
783.000000	2.627409   
783.500000	2.602681   
784.000000	2.607477   
784.500000	2.586893   
785.000000	2.579477   
785.500000	2.420446   
786.000000	2.323560   
786.500000	2.163060   
787.000000	2.246431   
787.500000	2.364477   
788.000000	2.498606   
788.500000	2.498007   
789.000000	2.531696   
789.500000	2.612227   
790.000000	2.568901   
790.500000	2.524666   
791.000000	2.506477   
791.500000	2.629166   
792.000000	2.645500   
792.500000	2.559992   
793.000000	2.461522   
793.500000	2.509348   
794.000000	2.434712   
794.500000	2.336886   
795.000000	2.202257   
795.500000	2.137984   
796.000000	1.946863   
796.500000	1.831136   
797.000000	1.864098   
797.500000	2.122742   
798.000000	2.253439   
798.500000	2.205272   
799.000000	2.118507   
799.500000	2.020325   
800.000000	2.039090   
800.500000	2.054166   
801.000000	2.053893   
801.500000	1.930030   
802.000000	1.756734   
802.500000	1.678068   
803.000000	1.755704   
803.500000	2.019742   
804.000000	2.091424   
804.500000	2.074477   
805.000000	1.941840   
805.500000	1.992689   
806.000000	1.815287   
806.500000	1.678204   
807.000000	1.524227   
807.500000	1.748712   
808.000000	1.865060   
808.500000	2.015431   
809.000000	1.891189   
809.500000	1.753765   
810.000000	1.495340   
810.500000	1.675143   
811.000000	1.897371   
811.500000	2.059795   
812.000000	1.730401   
812.500000	1.546113   
813.000000	1.438477   
813.500000	1.586030   
814.000000	1.574272   
814.500000	1.523121   
815.000000	1.332537   
815.500000	1.276378   
816.000000	1.336878   
816.500000	1.518643   
817.000000	1.672075   
817.500000	1.786530   
818.000000	1.826863   
818.500000	1.769530   
819.000000	1.624227   
819.500000	1.513015   
820.000000	1.564212   
820.500000	1.759924   
821.000000	2.109848   
821.500000	2.334484   
822.000000	2.538674   
822.500000	2.402871   
823.000000	2.310636   
823.500000	2.260651   
824.000000	2.398431   
824.500000	2.490075   
825.000000	2.562174   
825.500000	2.586969   
826.000000	2.513643   
826.500000	2.327356   
827.000000	2.068606   
827.500000	1.894780   
828.000000	1.682393   
828.500000	1.616189   
829.000000	1.616886   
829.500000	1.570454   
830.000000	1.420530   
830.500000	1.321674   
831.000000	1.335439   
831.500000	1.423151   
832.000000	1.451106   
832.500000	1.368303   
833.000000	1.210060   
833.500000	1.029886   
834.000000	0.958212   
834.500000	0.967954   
835.000000	0.982098   
835.500000	0.951833   
836.000000	0.894901   
836.500000	0.868333   
837.000000	0.860204   
837.500000	0.860143   
838.000000	0.857477   
838.500000	0.871727   
839.000000	0.920068   
839.500000	0.968075   
840.000000	0.934598   
840.500000	0.827795   
841.000000	0.674378   
841.500000	0.608219   
842.000000	0.651356   
842.500000	0.846522   
843.000000	0.922795   
843.500000	0.786159   
844.000000	0.552886   
844.500000	0.533136   
845.000000	0.603856   
845.500000	0.521795   
846.000000	0.262356   
846.500000	0.089590   
847.000000	0.178333   
847.500000	0.291659   
848.000000	0.324454   
848.500000	0.305356   
849.000000	0.306477   
849.500000	0.232507   
850.000000	0.210583   
850.500000	0.228818   
851.000000	0.288765   
851.500000	0.194977   
852.000000	0.100000   
852.500000	0.138242   
853.000000	0.259250   
853.500000	0.242515   
854.000000	0.185174   
854.500000	0.088227   
855.000000	0.000772   
855.500000	-0.100886  
856.000000	-0.106212  
856.500000	-0.098325  
857.000000	-0.027651  
857.500000	0.051659   
858.000000	0.172962   
858.500000	0.225045   
859.000000	0.206469   
859.500000	0.219916   
860.000000	0.224212   
860.500000	0.204893   
861.000000	0.097621   
861.500000	0.064530   
862.000000	0.051371   
862.500000	0.022310   
863.000000	-0.036537  
863.500000	-0.058765  
864.000000	-0.054045  
864.500000	-0.046598  
865.000000	-0.025606  
865.500000	-0.010196  
866.000000	-0.062750  
866.500000	-0.056984  
867.000000	0.042257   
867.500000	0.251590   
868.000000	0.295340   
868.500000	0.153530   
869.000000	-0.092356  
869.500000	-0.166265  
870.000000	-0.054431  
870.500000	0.100477   
871.000000	0.115810   
871.500000	0.030545   
872.000000	-0.030856  
872.500000	-0.005848  
873.000000	0.043848   
873.500000	0.005272   
874.000000	-0.142901  
874.500000	-0.156696  
875.000000	-0.021227  
875.500000	0.143106   
876.000000	0.132818   
876.500000	0.093340   
877.000000	0.073659   
877.500000	0.003227   
878.000000	-0.176227  
878.500000	-0.190371  
879.000000	-0.086560  
879.500000	0.063113   
880.000000	0.083522   
880.500000	0.113500   
881.000000	0.115333   
881.500000	0.148325   
882.000000	0.074045   
882.500000	0.036871   
883.000000	0.014454   
883.500000	0.045621   
884.000000	-0.035106  
884.500000	-0.172325  
885.000000	-0.247015  
885.500000	-0.142196  
886.000000	-0.049613  
886.500000	-0.042159  
887.000000	-0.088022  
887.500000	-0.117962  
888.000000	-0.162863  
888.500000	-0.226977  
889.000000	-0.174446  
889.500000	-0.079575  
890.000000	-0.003393  
890.500000	0.021553   
891.000000	0.001484   
891.500000	-0.025424  
892.000000	-0.081946  
892.500000	-0.160643  
893.000000	-0.250856  
893.500000	-0.219840  
894.000000	-0.160000  
894.500000	-0.016863  
895.000000	0.072257   
895.500000	0.112507   
896.000000	0.017151   
896.500000	-0.103037  
897.000000	-0.174363  
897.500000	-0.037621  
898.000000	0.106977   
898.500000	0.192484   
899.000000	0.123121   
899.500000	-0.015310  
900.000000	-0.171560  
900.500000	-0.296000  

