PE FL                   SPECTRUM    ASCII       PEDS        1.60        
  -1
S12R#41.SP
24/04/15
16:36:43.00
24/04/15
16:38:09.00
Jan

900.500000
1









LS55
405.00
5.00
5.00
SCAN
1
20
100
100
0
400
0
1
0
1
5
ON
900 405 
1 0 0
#HDR
-1
-1
#GR
NM

0.00002384185791015625
0.0
450.000000
0.500000
902
8
159.999060
-0.482037
#DATA
450.000000	0.032000   
450.500000	-0.112545  
451.000000	-0.003242  
451.500000	0.205416   
452.000000	0.273159   
452.500000	0.286696   
453.000000	0.311227   
453.500000	0.290075   
454.000000	0.181537   
454.500000	-0.023674  
455.000000	-0.124015  
455.500000	-0.169053  
456.000000	-0.120825  
456.500000	-0.192500  
457.000000	-0.264803  
457.500000	-0.076090  
458.000000	0.200772   
458.500000	0.218053   
459.000000	-0.098901  
459.500000	-0.338765  
460.000000	-0.297318  
460.500000	-0.172446  
461.000000	-0.215287  
461.500000	-0.345454  
462.000000	-0.359174  
462.500000	-0.298500  
463.000000	-0.245500  
463.500000	-0.294530  
464.000000	-0.376560  
464.500000	-0.482037  
465.000000	-0.437537  
465.500000	-0.246787  
466.000000	-0.063537  
466.500000	-0.082272  
467.000000	-0.089295  
467.500000	-0.027765  
468.000000	0.120037   
468.500000	0.266136   
469.000000	0.353333   
469.500000	0.310643   
470.000000	0.043999   
470.500000	-0.065999  
471.000000	0.056401   
471.500000	0.276871   
472.000000	0.174931   
472.500000	-0.001727  
473.000000	-0.067984  
473.500000	0.025401   
474.000000	0.139159   
474.500000	0.166969   
475.000000	0.246401   
475.500000	0.254075   
476.000000	0.215568   
476.500000	0.029477   
477.000000	-0.122469  
477.500000	-0.219143  
478.000000	-0.244803  
478.500000	-0.193553  
479.000000	-0.068893  
479.500000	0.071825   
480.000000	0.120666   
480.500000	-0.031431  
481.000000	-0.233833  
481.500000	-0.378848  
482.000000	-0.308000  
482.500000	-0.175121  
483.000000	0.000553   
483.500000	0.079598   
484.000000	0.183962   
484.500000	0.210643   
485.000000	0.123121   
485.500000	-0.002022  
486.000000	-0.055659  
486.500000	-0.035636  
487.000000	-0.006500  
487.500000	0.050098   
488.000000	0.085356   
488.500000	0.142462   
489.000000	0.085022   
489.500000	0.029401   
490.000000	-0.078924  
490.500000	-0.104310  
491.000000	-0.159598  
491.500000	-0.165272  
492.000000	-0.152356  
492.500000	-0.108628  
493.000000	-0.054757  
493.500000	-0.063295  
494.000000	0.050704   
494.500000	0.109121   
495.000000	0.271106   
495.500000	0.328515   
496.000000	0.475977   
496.500000	0.448181   
497.000000	0.496977   
497.500000	0.511598   
498.000000	0.547522   
498.500000	0.448500   
499.000000	0.457863   
499.500000	0.667242   
500.000000	0.871212   
500.500000	0.866484   
501.000000	0.746522   
501.500000	0.692409   
502.000000	0.671121   
502.500000	0.745689   
503.000000	0.866893   
503.500000	0.976393   
504.000000	1.021348   
504.500000	1.039166   
505.000000	1.059015   
505.500000	1.115340   
506.000000	1.284189   
506.500000	1.415651   
507.000000	1.438977   
507.500000	1.431295   
508.000000	1.627196   
508.500000	1.744666   
509.000000	1.688068   
509.500000	1.608553   
510.000000	1.821803   
510.500000	2.124219   
511.000000	2.349121   
511.500000	2.392227   
512.000000	2.317651   
512.500000	2.363106   
513.000000	2.468348   
513.500000	2.508772   
514.000000	2.323454   
514.500000	2.388848   
515.000000	2.717984   
515.500000	3.162613   
516.000000	3.302196   
516.500000	3.243545   
517.000000	3.082560   
517.500000	2.947931   
518.000000	2.945757   
518.500000	3.086030   
519.000000	3.159909   
519.500000	3.111409   
520.000000	3.173151   
520.500000	3.307015   
521.000000	3.417537   
521.500000	3.415090   
522.000000	3.404954   
522.500000	3.262356   
523.000000	3.265750   
523.500000	3.405946   
524.000000	3.762151   
524.500000	3.698401   
525.000000	3.593340   
525.500000	3.563606   
526.000000	3.843909   
526.500000	3.849325   
527.000000	3.796212   
527.500000	3.920780   
528.000000	4.327787   
528.500000	4.698409   
529.000000	4.848424   
529.500000	4.980924   
530.000000	5.047257   
530.500000	5.198507   
531.000000	5.289537   
531.500000	5.646295   
532.000000	6.104113   
532.500000	6.563772   
533.000000	6.859045   
533.500000	7.234303   
534.000000	7.532742   
534.500000	7.588340   
535.000000	7.748545   
535.500000	8.066969   
536.000000	8.549659   
536.500000	9.005613   
537.000000	9.543181   
537.500000	10.125750  
538.000000	10.446825  
538.500000	10.812348  
539.000000	11.393303  
539.500000	12.266840  
540.000000	12.645712  
540.500000	12.788446  
541.000000	13.042143  
541.500000	13.514371  
542.000000	13.630621  
542.500000	13.679037  
543.000000	14.105477  
543.500000	14.654136  
544.000000	14.283840  
544.500000	12.976053  
545.000000	11.634181  
545.500000	10.963651  
546.000000	10.598037  
546.500000	10.223000  
547.000000	9.605515   
547.500000	8.751371   
548.000000	7.916022   
548.500000	7.358287   
549.000000	6.978765   
549.500000	6.799681   
550.000000	6.520234   
550.500000	6.198674   
551.000000	5.644446   
551.500000	4.981939   
552.000000	4.270553   
552.500000	3.727780   
553.000000	3.457507   
553.500000	3.396015   
554.000000	3.283204   
554.500000	3.082303   
555.000000	3.036734   
555.500000	3.300189   
556.000000	3.500219   
556.500000	3.501340   
557.000000	3.251113   
557.500000	3.130113   
558.000000	3.118053   
558.500000	3.264015   
559.000000	3.341272   
559.500000	3.348333   
560.000000	3.154712   
560.500000	2.943909   
561.000000	2.828803   
561.500000	2.985060   
562.000000	3.219250   
562.500000	3.363750   
563.000000	3.320780   
563.500000	3.195401   
564.000000	3.124090   
564.500000	3.188272   
565.000000	3.298280   
565.500000	3.397363   
566.000000	3.308863   
566.500000	3.173500   
567.000000	3.077371   
567.500000	3.163340   
568.000000	3.270015   
568.500000	3.241174   
569.000000	3.131030   
569.500000	3.013787   
570.000000	3.085189   
570.500000	3.095537   
571.000000	3.091969   
571.500000	3.060431   
572.000000	3.227863   
572.500000	3.348416   
573.000000	3.325378   
573.500000	3.199621   
574.000000	3.218856   
574.500000	3.270075   
575.000000	3.332136   
575.500000	3.314795   
576.000000	3.387113   
576.500000	3.304553   
577.000000	3.294772   
577.500000	3.288151   
578.000000	3.341075   
578.500000	3.261333   
579.000000	3.204181   
579.500000	3.305143   
580.000000	3.481045   
580.500000	3.628393   
581.000000	3.652954   
581.500000	3.779431   
582.000000	3.748666   
582.500000	3.778249   
583.000000	3.772371   
583.500000	3.912424   
584.000000	3.970015   
584.500000	3.962219   
585.000000	3.835803   
585.500000	3.718166   
586.000000	3.637946   
586.500000	3.709333   
587.000000	3.797848   
587.500000	3.745386   
588.000000	3.430969   
588.500000	3.320992   
589.000000	3.421856   
589.500000	3.763507   
590.000000	3.885992   
590.500000	3.904651   
591.000000	3.731583   
591.500000	3.595234   
592.000000	3.421174   
592.500000	3.417030   
593.000000	3.680250   
593.500000	4.154386   
594.000000	4.508962   
594.500000	4.782696   
595.000000	4.790462   
595.500000	4.743628   
596.000000	4.641598   
596.500000	4.721250   
597.000000	4.798113   
597.500000	4.811386   
598.000000	4.896356   
598.500000	5.005196   
599.000000	5.147924   
599.500000	5.091757   
600.000000	5.230772   
600.500000	5.395984   
601.000000	5.758818   
601.500000	5.947356   
602.000000	6.193287   
602.500000	6.322613   
603.000000	6.509628   
603.500000	6.715765   
604.000000	6.862962   
604.500000	7.109363   
605.000000	7.375030   
605.500000	7.563143   
606.000000	7.656378   
606.500000	7.891462   
607.000000	8.272204   
607.500000	8.655689   
608.000000	8.909628   
608.500000	8.857257   
609.000000	8.964250   
609.500000	9.210636   
610.000000	9.760401   
610.500000	10.098265  
611.000000	10.447984  
611.500000	10.715287  
612.000000	11.169962  
612.500000	11.313037  
613.000000	11.654000  
613.500000	12.044098  
614.000000	12.796780  
614.500000	13.275060  
615.000000	13.595174  
615.500000	13.633037  
616.000000	13.834628  
616.500000	14.283022  
617.000000	14.987219  
617.500000	15.695356  
618.000000	16.274310  
618.500000	16.678227  
619.000000	17.207257  
619.500000	17.725439  
620.000000	18.751500  
620.500000	19.518393  
621.000000	20.254037  
621.500000	20.457348  
622.000000	20.977416  
622.500000	21.945371  
623.000000	23.061325  
623.500000	23.663371  
624.000000	23.722833  
624.500000	24.147068  
625.000000	25.178249  
625.500000	26.742969  
626.000000	27.806803  
626.500000	28.264143  
627.000000	28.603984  
627.500000	29.540909  
628.000000	30.924606  
628.500000	32.533159  
629.000000	34.145356  
629.500000	35.803227  
630.000000	36.974151  
630.500000	37.608022  
631.000000	38.306196  
631.500000	39.827977  
632.000000	41.957340  
632.500000	43.446575  
633.000000	44.310606  
633.500000	45.004651  
634.000000	46.868401  
634.500000	48.547681  
635.000000	49.981098  
635.500000	50.945643  
636.000000	53.015075  
636.500000	55.324060  
637.000000	57.436568  
637.500000	58.478265  
638.000000	58.931113  
638.500000	59.865416  
639.000000	61.929666  
639.500000	64.608818  
640.000000	66.100984  
640.500000	67.315750  
641.000000	69.357507  
641.500000	72.440780  
642.000000	74.970931  
642.500000	76.933075  
643.000000	78.681659  
643.500000	80.585295  
644.000000	82.536242  
644.500000	85.522901  
645.000000	89.131507  
645.500000	91.888371  
646.000000	92.374310  
646.500000	93.093689  
647.000000	94.877363  
647.500000	97.467287  
648.000000	99.387015  
648.500000	101.159409 
649.000000	102.975598 
649.500000	104.853962 
650.000000	106.929757 
650.500000	108.719416 
651.000000	110.691674 
651.500000	112.222553 
652.000000	114.328992 
652.500000	116.080242 
653.000000	117.240977 
653.500000	118.148992 
654.000000	120.277560 
654.500000	122.938696 
655.000000	125.944159 
655.500000	128.495454 
656.000000	130.270371 
656.500000	131.648909 
657.000000	133.245871 
657.500000	134.990795 
658.000000	135.714401 
658.500000	136.347507 
659.000000	137.395318 
659.500000	139.562628 
660.000000	140.645909 
660.500000	142.511265 
661.000000	144.390522 
661.500000	146.560128 
662.000000	147.720090 
662.500000	148.554848 
663.000000	148.747462 
663.500000	148.910969 
664.000000	149.648636 
664.500000	151.423280 
665.000000	152.864553 
665.500000	153.471984 
666.000000	154.155803 
666.500000	155.590545 
667.000000	156.908651 
667.500000	157.378530 
668.000000	157.566060 
668.500000	156.594916 
669.000000	155.872121 
669.500000	155.357469 
670.000000	156.479462 
670.500000	157.746742 
671.000000	159.495606 
671.500000	159.999060 
672.000000	159.703931 
672.500000	158.083992 
673.000000	156.405613 
673.500000	155.825916 
674.000000	154.739909 
674.500000	153.680818 
675.000000	152.773507 
675.500000	152.852901 
676.000000	153.078689 
676.500000	151.902303 
677.000000	150.236401 
677.500000	148.405515 
678.000000	147.719704 
678.500000	146.513060 
679.000000	145.950924 
679.500000	144.221636 
680.000000	142.321696 
680.500000	139.232356 
681.000000	136.347719 
681.500000	134.957939 
682.000000	134.675848 
682.500000	133.631863 
683.000000	130.849810 
683.500000	127.990606 
684.000000	126.543984 
684.500000	125.804060 
685.000000	124.314431 
685.500000	121.349143 
686.000000	117.529924 
686.500000	113.185439 
687.000000	109.514280 
687.500000	107.755977 
688.000000	106.434409 
688.500000	104.777568 
689.000000	102.431992 
689.500000	100.652121 
690.000000	98.486272  
690.500000	96.525863  
691.000000	93.842045  
691.500000	91.249939  
692.000000	88.259651  
692.500000	86.667106  
693.000000	85.482621  
693.500000	83.351909  
694.000000	79.730484  
694.500000	76.233999  
695.000000	73.334090  
695.500000	70.944643  
696.000000	68.986734  
696.500000	67.436856  
697.000000	65.997416  
697.500000	64.185484  
698.000000	62.448128  
698.500000	60.593113  
699.000000	58.409522  
699.500000	56.644787  
700.000000	55.361878  
700.500000	53.898136  
701.000000	52.617575  
701.500000	51.702689  
702.000000	51.065030  
702.500000	49.476484  
703.000000	47.528553  
703.500000	45.855734  
704.000000	44.833818  
704.500000	43.410030  
705.000000	41.458401  
705.500000	39.806537  
706.000000	38.766780  
706.500000	38.193037  
707.000000	37.505234  
707.500000	36.466325  
708.000000	35.295204  
708.500000	34.085287  
709.000000	32.835553  
709.500000	31.345840  
710.000000	30.209909  
710.500000	29.410045  
711.000000	28.976878  
711.500000	28.442606  
712.000000	27.880863  
712.500000	27.046772  
713.000000	26.238484  
713.500000	25.267590  
714.000000	24.971583  
714.500000	24.367765  
715.000000	23.875878  
715.500000	23.087257  
716.000000	22.503575  
716.500000	21.415469  
717.000000	20.435469  
717.500000	19.722083  
718.000000	19.590590  
718.500000	19.357553  
719.000000	18.869962  
719.500000	18.387030  
720.000000	17.995106  
720.500000	17.453969  
721.000000	16.725128  
721.500000	16.197045  
722.000000	16.167204  
722.500000	16.064848  
723.000000	15.432916  
723.500000	14.447295  
724.000000	13.931598  
724.500000	13.837515  
725.000000	13.872712  
725.500000	13.455606  
726.000000	12.855090  
726.500000	12.282242  
727.000000	12.119106  
727.500000	12.289242  
728.000000	12.376196  
728.500000	12.036825  
729.000000	11.399378  
729.500000	10.958280  
730.000000	10.929454  
730.500000	11.031439  
731.000000	10.979204  
731.500000	10.602113  
732.000000	9.975560   
732.500000	9.334734   
733.000000	9.210818   
733.500000	9.453500   
734.000000	9.656651   
734.500000	9.177318   
735.000000	8.636515   
735.500000	8.377651   
736.000000	8.384378   
736.500000	8.200757   
737.000000	7.979477   
737.500000	7.787000   
738.000000	7.814606   
738.500000	7.717659   
739.000000	7.260613   
739.500000	6.724393   
740.000000	6.538068   
740.500000	6.741787   
741.000000	6.960962   
741.500000	6.933401   
742.000000	6.877856   
742.500000	6.866060   
743.000000	6.765999   
743.500000	6.509575   
744.000000	6.373962   
744.500000	6.181992   
745.000000	6.060825   
745.500000	5.851537   
746.000000	5.613969   
746.500000	5.474234   
747.000000	5.599712   
747.500000	5.925181   
748.000000	6.200621   
748.500000	6.267787   
749.000000	5.996568   
749.500000	5.579356   
750.000000	5.003984   
750.500000	4.681439   
751.000000	4.646204   
751.500000	4.845719   
752.000000	5.011886   
752.500000	5.211272   
753.000000	5.146606   
753.500000	4.932977   
754.000000	4.517643   
754.500000	4.410780   
755.000000	4.649401   
755.500000	5.034159   
756.000000	4.983348   
756.500000	4.500803   
757.000000	3.876083   
757.500000	3.528310   
758.000000	3.514500   
758.500000	3.558318   
759.000000	3.574015   
759.500000	3.509916   
760.000000	3.679000   
760.500000	3.992727   
761.000000	4.257575   
761.500000	4.083462   
762.000000	3.833916   
762.500000	3.708060   
763.000000	3.834893   
763.500000	3.932060   
764.000000	4.056318   
764.500000	4.036356   
765.000000	3.956219   
765.500000	3.760643   
766.000000	3.695916   
766.500000	3.637628   
767.000000	3.660856   
767.500000	3.625840   
768.000000	3.720265   
768.500000	3.758931   
769.000000	3.702992   
769.500000	3.510053   
770.000000	3.338060   
770.500000	3.183992   
771.000000	3.074083   
771.500000	3.000257   
772.000000	3.055924   
772.500000	3.201871   
773.000000	3.223871   
773.500000	3.178060   
774.000000	3.061318   
774.500000	3.020818   
775.000000	3.011333   
775.500000	3.066939   
776.000000	3.094393   
776.500000	3.082007   
777.000000	3.055378   
777.500000	3.007537   
778.000000	2.977674   
778.500000	2.912401   
779.000000	2.937500   
779.500000	2.998984   
780.000000	3.111515   
780.500000	3.126060   
781.000000	3.099681   
781.500000	2.964030   
782.000000	2.766712   
782.500000	2.531030   
783.000000	2.443939   
783.500000	2.513757   
784.000000	2.703840   
784.500000	2.844613   
785.000000	2.838022   
785.500000	2.673325   
786.000000	2.457984   
786.500000	2.273545   
787.000000	2.284507   
787.500000	2.427772   
788.000000	2.604666   
788.500000	2.576848   
789.000000	2.538234   
789.500000	2.551401   
790.000000	2.586212   
790.500000	2.544977   
791.000000	2.493272   
791.500000	2.588295   
792.000000	2.707212   
792.500000	2.707348   
793.000000	2.574590   
793.500000	2.434022   
794.000000	2.335143   
794.500000	2.217128   
795.000000	2.281719   
795.500000	2.372628   
796.000000	2.510287   
796.500000	2.513265   
797.000000	2.475439   
797.500000	2.431068   
798.000000	2.311325   
798.500000	2.282833   
799.000000	2.211984   
799.500000	2.237462   
800.000000	2.154689   
800.500000	2.263015   
801.000000	2.166113   
801.500000	2.028734   
802.000000	1.744098   
802.500000	1.748537   
803.000000	1.914651   
803.500000	2.183469   
804.000000	2.249803   
804.500000	2.150750   
805.000000	2.014787   
805.500000	1.897818   
806.000000	1.869628   
806.500000	1.834325   
807.000000	1.895136   
807.500000	1.923924   
808.000000	2.016583   
808.500000	2.144030   
809.000000	2.242606   
809.500000	2.156250   
810.000000	1.932636   
810.500000	1.639787   
811.000000	1.428977   
811.500000	1.272401   
812.000000	1.214242   
812.500000	1.134454   
813.000000	1.331765   
813.500000	1.665454   
814.000000	1.944128   
814.500000	1.854651   
815.000000	1.700318   
815.500000	1.714257   
816.000000	1.789287   
816.500000	1.753825   
817.000000	1.605734   
817.500000	1.468696   
818.000000	1.385242   
818.500000	1.330628   
819.000000	1.281166   
819.500000	1.276856   
820.000000	1.570962   
820.500000	1.791333   
821.000000	1.924053   
821.500000	1.834818   
822.000000	2.025613   
822.500000	2.214583   
823.000000	2.309318   
823.500000	2.232628   
824.000000	2.366772   
824.500000	2.575772   
825.000000	2.657136   
825.500000	2.595886   
826.000000	2.503583   
826.500000	2.549901   
827.000000	2.514363   
827.500000	2.364310   
828.000000	2.137212   
828.500000	1.947340   
829.000000	1.775681   
829.500000	1.650022   
830.000000	1.540681   
830.500000	1.482727   
831.000000	1.457606   
831.500000	1.409371   
832.000000	1.343856   
832.500000	1.218446   
833.000000	1.147651   
833.500000	1.123492   
834.000000	1.138348   
834.500000	1.088068   
835.000000	1.028143   
835.500000	0.956189   
836.000000	0.898643   
836.500000	0.904636   
837.000000	0.955560   
837.500000	0.971492   
838.000000	0.852909   
838.500000	0.700340   
839.000000	0.669674   
839.500000	0.794674   
840.000000	0.942500   
840.500000	0.995439   
841.000000	0.931454   
841.500000	0.732159   
842.000000	0.527113   
842.500000	0.516484   
843.000000	0.692674   
843.500000	0.777840   
844.000000	0.656416   
844.500000	0.585856   
845.000000	0.656507   
845.500000	0.690174   
846.000000	0.491871   
846.500000	0.292689   
847.000000	0.241280   
847.500000	0.355901   
848.000000	0.414287   
848.500000	0.364583   
849.000000	0.211250   
849.500000	0.083439   
850.000000	0.102848   
850.500000	0.108689   
851.000000	0.118886   
851.500000	0.132363   
852.000000	0.410113   
852.500000	0.590795   
853.000000	0.590818   
853.500000	0.304810   
854.000000	0.189045   
854.500000	0.130795   
855.000000	0.130909   
855.500000	-0.021712  
856.000000	-0.116946  
856.500000	-0.157931  
857.000000	-0.046818  
857.500000	0.031174   
858.000000	0.080909   
858.500000	0.133303   
859.000000	0.259833   
859.500000	0.288348   
860.000000	0.181621   
860.500000	-0.019371  
861.000000	-0.115818  
861.500000	-0.095886  
862.000000	-0.015075  
862.500000	0.026469   
863.000000	0.012431   
863.500000	-0.027060  
864.000000	-0.043227  
864.500000	-0.036371  
865.000000	-0.055151  
865.500000	-0.013371  
866.000000	-0.000287  
866.500000	-0.050174  
867.000000	-0.170946  
867.500000	-0.143022  
868.000000	0.050499   
868.500000	0.254984   
869.000000	0.259075   
869.500000	0.114636   
870.000000	-0.012977  
870.500000	-0.039515  
871.000000	-0.039522  
871.500000	-0.027128  
872.000000	0.017643   
872.500000	0.058522   
873.000000	0.081560   
873.500000	0.092037   
874.000000	0.083545   
874.500000	0.007681   
875.000000	-0.025871  
875.500000	0.036060   
876.000000	0.169356   
876.500000	0.202742   
877.000000	0.054348   
877.500000	-0.144356  
878.000000	-0.224575  
878.500000	-0.111030  
879.000000	-0.026030  
879.500000	-0.024924  
880.000000	-0.096560  
880.500000	-0.125143  
881.000000	-0.199636  
881.500000	-0.241181  
882.000000	-0.191878  
882.500000	-0.205734  
883.000000	-0.325280  
883.500000	-0.350424  
884.000000	-0.132969  
884.500000	-0.016060  
885.000000	-0.110575  
885.500000	-0.220924  
886.000000	-0.087249  
886.500000	0.067651   
887.000000	0.079060   
887.500000	-0.002257  
888.000000	0.012545   
888.500000	0.023742   
889.000000	-0.011734  
889.500000	-0.089666  
890.000000	-0.015886  
890.500000	0.100712   
891.000000	0.163250   
891.500000	0.069272   
892.000000	0.003909   
892.500000	0.013454   
893.000000	0.023719   
893.500000	0.004401   
894.000000	-0.001265  
894.500000	0.018878   
895.000000	-0.004356  
895.500000	-0.033371  
896.000000	-0.059787  
896.500000	0.069825   
897.000000	0.261893   
897.500000	0.420363   
898.000000	0.288416   
898.500000	-0.012318  
899.000000	-0.275500  
899.500000	-0.212681  
900.000000	0.023431   
900.500000	0.333000   

