PE FL                   SPECTRUM    ASCII       PEDS        1.60        
  -1
S12R#27.SP
24/04/15
16:16:45.00
24/04/15
16:18:10.00
Jan

900.500000
1









LS55
405.00
5.00
5.00
SCAN
1
20
100
100
0
400
0
1
0
1
5
ON
900 405 
1 0 0
#HDR
-1
-1
#GR
NM

0.00002384185791015625
0.0
450.000000
0.500000
902
8
177.286515
-0.922999
#DATA
450.000000	-0.671999  
450.500000	-0.200825  
451.000000	0.086454   
451.500000	0.104712   
452.000000	0.035030   
452.500000	-0.107265  
453.000000	-0.130651  
453.500000	-0.093053  
454.000000	0.006090   
454.500000	0.024189   
455.000000	0.044568   
455.500000	0.020121   
456.000000	-0.002886  
456.500000	-0.050234  
457.000000	0.009848   
457.500000	0.143348   
458.000000	0.266583   
458.500000	0.246659   
459.000000	0.092727   
459.500000	-0.093121  
460.000000	-0.278742  
460.500000	-0.279606  
461.000000	-0.218204  
461.500000	-0.060719  
462.000000	-0.108083  
462.500000	-0.021575  
463.000000	-0.004310  
463.500000	0.064689   
464.000000	-0.080946  
464.500000	-0.175651  
465.000000	-0.301916  
465.500000	-0.246363  
466.000000	-0.226886  
466.500000	-0.209500  
467.000000	-0.253666  
467.500000	-0.169143  
468.000000	-0.023696  
468.500000	-0.060318  
469.000000	-0.258636  
469.500000	-0.313954  
470.000000	-0.147204  
470.500000	-0.068992  
471.000000	-0.112121  
471.500000	-0.167553  
472.000000	-0.172143  
472.500000	-0.151007  
473.000000	-0.109431  
473.500000	-0.077553  
474.000000	-0.052666  
474.500000	-0.071045  
475.000000	-0.008696  
475.500000	0.041477   
476.000000	0.117083   
476.500000	0.085037   
477.000000	0.062886   
477.500000	-0.049424  
478.000000	-0.073886  
478.500000	0.027659   
479.000000	0.106704   
479.500000	0.106825   
480.000000	0.064666   
480.500000	0.039651   
481.000000	-0.041674  
481.500000	-0.194477  
482.000000	-0.264007  
482.500000	-0.269143  
483.000000	-0.221219  
483.500000	-0.287128  
484.000000	-0.245537  
484.500000	-0.129545  
485.000000	0.068280   
485.500000	0.141742   
486.000000	0.169280   
486.500000	0.151742   
487.000000	0.169272   
487.500000	0.155727   
488.000000	0.119265   
488.500000	0.010136   
489.000000	-0.000106  
489.500000	0.100537   
490.000000	0.161583   
490.500000	0.109386   
491.000000	-0.049007  
491.500000	-0.046840  
492.000000	0.042992   
492.500000	0.133719   
493.000000	0.038439   
493.500000	-0.012969  
494.000000	-0.051787  
494.500000	0.124325   
495.000000	0.287136   
495.500000	0.414189   
496.000000	0.418348   
496.500000	0.490477   
497.000000	0.515409   
497.500000	0.504568   
498.000000	0.396560   
498.500000	0.429901   
499.000000	0.610416   
499.500000	0.744477   
500.000000	0.738977   
500.500000	0.757242   
501.000000	0.901515   
501.500000	1.006121   
502.000000	0.995772   
502.500000	0.819621   
503.000000	0.672015   
503.500000	0.656151   
504.000000	0.959969   
504.500000	1.171295   
505.000000	1.284545   
505.500000	1.238015   
506.000000	1.528363   
506.500000	1.758242   
507.000000	1.939643   
507.500000	1.792840   
508.000000	1.774734   
508.500000	1.676590   
509.000000	1.784924   
509.500000	1.881515   
510.000000	2.107484   
510.500000	2.414401   
511.000000	2.770643   
511.500000	2.976416   
512.000000	2.984946   
512.500000	2.846659   
513.000000	2.714151   
513.500000	2.688674   
514.000000	2.805909   
514.500000	2.994454   
515.000000	3.148318   
515.500000	3.097257   
516.000000	3.038416   
516.500000	3.093037   
517.000000	3.218946   
517.500000	3.379666   
518.000000	3.414681   
518.500000	3.430000   
519.000000	3.295022   
519.500000	3.181530   
520.000000	2.994962   
520.500000	3.180318   
521.000000	3.406250   
521.500000	3.774909   
522.000000	3.811053   
522.500000	3.835462   
523.000000	3.681151   
523.500000	3.648515   
524.000000	3.514015   
524.500000	3.585075   
525.000000	3.759613   
525.500000	3.953878   
526.000000	3.980916   
526.500000	3.909886   
527.000000	4.009007   
527.500000	4.334583   
528.000000	4.768606   
528.500000	5.003075   
529.000000	5.131015   
529.500000	5.268106   
530.000000	5.369787   
530.500000	5.623106   
531.000000	5.841075   
531.500000	6.067416   
532.000000	6.049053   
532.500000	6.412287   
533.000000	6.873522   
533.500000	7.276500   
534.000000	6.978257   
534.500000	6.814613   
535.000000	7.249356   
535.500000	8.134772   
536.000000	8.850780   
536.500000	9.258295   
537.000000	9.709121   
537.500000	10.200159  
538.000000	10.564469  
538.500000	10.806356  
539.000000	11.235181  
539.500000	12.035924  
540.000000	12.503507  
540.500000	13.018446  
541.000000	13.171575  
541.500000	13.465181  
542.000000	13.372742  
542.500000	13.772772  
543.000000	13.997871  
543.500000	14.028431  
544.000000	13.302560  
544.500000	12.470477  
545.000000	11.524196  
545.500000	10.581454  
546.000000	10.047204  
546.500000	9.675696   
547.000000	9.282901   
547.500000	8.481545   
548.000000	7.808704   
548.500000	7.215416   
549.000000	7.081219   
549.500000	6.897174   
550.000000	6.466795   
550.500000	5.585833   
551.000000	4.772848   
551.500000	4.470053   
552.000000	4.514431   
552.500000	4.442250   
553.000000	4.143136   
553.500000	3.638962   
554.000000	3.361068   
554.500000	3.386409   
555.000000	3.722780   
555.500000	3.773075   
556.000000	3.622068   
556.500000	3.226060   
557.000000	3.016954   
557.500000	2.825242   
558.000000	2.871393   
558.500000	2.990386   
559.000000	3.237469   
559.500000	3.331393   
560.000000	3.306060   
560.500000	3.183954   
561.000000	3.127250   
561.500000	3.064795   
562.000000	3.050825   
562.500000	3.048787   
563.000000	3.076909   
563.500000	3.018674   
564.000000	2.988787   
564.500000	2.923606   
565.000000	3.031992   
565.500000	3.126871   
566.000000	3.327765   
566.500000	3.432757   
567.000000	3.376962   
567.500000	3.127136   
568.000000	2.985181   
568.500000	3.019431   
569.000000	3.119765   
569.500000	3.158613   
570.000000	3.157431   
570.500000	3.140037   
571.000000	3.102462   
571.500000	3.120651   
572.000000	3.312810   
572.500000	3.483848   
573.000000	3.497106   
573.500000	3.310681   
574.000000	3.296113   
574.500000	3.297727   
575.000000	3.262386   
575.500000	3.069553   
576.000000	3.146712   
576.500000	3.523583   
577.000000	3.851295   
577.500000	3.782000   
578.000000	3.396530   
578.500000	3.091530   
579.000000	3.067651   
579.500000	3.238780   
580.000000	3.377704   
580.500000	3.393484   
581.000000	3.269969   
581.500000	3.107848   
582.000000	3.079401   
582.500000	3.341878   
583.000000	3.636454   
583.500000	3.614969   
584.000000	3.207030   
584.500000	3.022681   
585.000000	3.170765   
585.500000	3.428772   
586.000000	3.457393   
586.500000	3.244863   
587.000000	3.182734   
587.500000	3.420765   
588.000000	3.849128   
588.500000	4.015825   
589.000000	3.944515   
589.500000	3.671037   
590.000000	3.610348   
590.500000	3.592469   
591.000000	3.837462   
591.500000	4.153757   
592.000000	4.339295   
592.500000	4.064977   
593.000000	3.783886   
593.500000	3.970416   
594.000000	4.443325   
594.500000	4.475477   
595.000000	4.173772   
595.500000	4.073643   
596.000000	4.286560   
596.500000	4.672287   
597.000000	4.958045   
597.500000	5.191954   
598.000000	5.020151   
598.500000	4.753287   
599.000000	4.649037   
599.500000	5.167507   
600.000000	5.547871   
600.500000	5.735530   
601.000000	5.486068   
601.500000	5.254196   
602.000000	5.306704   
602.500000	5.620636   
603.000000	6.014613   
603.500000	6.368787   
604.000000	6.504886   
604.500000	6.515446   
605.000000	6.446060   
605.500000	6.638037   
606.000000	6.976651   
606.500000	7.542696   
607.000000	7.969886   
607.500000	8.443045   
608.000000	8.616295   
608.500000	8.695499   
609.000000	8.524234   
609.500000	8.508136   
610.000000	8.654318   
610.500000	9.073878   
611.000000	9.390143   
611.500000	9.695787   
612.000000	9.927984   
612.500000	10.449325  
613.000000	10.939772  
613.500000	11.683090  
614.000000	12.138689  
614.500000	12.248984  
615.000000	12.067613  
615.500000	12.292075  
616.000000	13.063484  
616.500000	13.936606  
617.000000	14.324386  
617.500000	14.159068  
618.000000	14.227833  
618.500000	14.805719  
619.000000	15.692583  
619.500000	16.599719  
620.000000	17.182560  
620.500000	17.754416  
621.000000	18.249863  
621.500000	18.984159  
622.000000	19.478712  
622.500000	19.969015  
623.000000	20.571492  
623.500000	21.610280  
624.000000	22.411780  
624.500000	22.702803  
625.000000	22.920477  
625.500000	23.750621  
626.000000	25.038416  
626.500000	26.631113  
627.000000	28.131537  
627.500000	29.202765  
628.000000	29.631348  
628.500000	29.798848  
629.000000	30.553303  
629.500000	32.106833  
630.000000	34.106522  
630.500000	35.729106  
631.000000	36.743749  
631.500000	37.422984  
632.000000	38.984106  
632.500000	40.931446  
633.000000	42.582893  
633.500000	43.349000  
634.000000	44.469856  
634.500000	45.904530  
635.000000	47.695083  
635.500000	49.002401  
636.000000	50.681560  
636.500000	52.445613  
637.000000	54.073886  
637.500000	55.626772  
638.000000	56.984492  
638.500000	58.642515  
639.000000	60.224780  
639.500000	62.159962  
640.000000	64.099992  
640.500000	66.688689  
641.000000	69.192378  
641.500000	71.896416  
642.000000	73.942303  
642.500000	75.114310  
643.000000	75.798893  
643.500000	77.241477  
644.000000	80.044068  
644.500000	82.417651  
645.000000	84.140333  
645.500000	85.146462  
646.000000	87.902651  
646.500000	91.375999  
647.000000	94.922537  
647.500000	96.487196  
648.000000	96.945969  
648.500000	97.043818  
649.000000	98.533189  
649.500000	101.431962 
650.000000	104.444196 
650.500000	107.883871 
651.000000	110.944446 
651.500000	113.276560 
652.000000	115.038515 
652.500000	116.912439 
653.000000	119.609492 
653.500000	122.380545 
654.000000	124.698545 
654.500000	125.806143 
655.000000	127.255219 
655.500000	129.016181 
656.000000	131.961037 
656.500000	133.866606 
657.000000	134.828325 
657.500000	135.776363 
658.000000	138.737469 
658.500000	142.393962 
659.000000	145.525878 
659.500000	146.593704 
660.000000	146.539893 
660.500000	146.874484 
661.000000	148.716325 
661.500000	152.286962 
662.000000	155.129659 
662.500000	156.638280 
663.000000	157.141977 
663.500000	158.394856 
664.000000	160.049712 
664.500000	161.336636 
665.000000	162.350484 
665.500000	164.334651 
666.000000	166.789416 
666.500000	168.801045 
667.000000	170.036689 
667.500000	171.568242 
668.000000	173.294651 
668.500000	174.029075 
669.000000	172.720833 
669.500000	172.025787 
670.000000	173.001515 
670.500000	175.464166 
671.000000	176.996500 
671.500000	176.342939 
672.000000	174.549909 
672.500000	174.219818 
673.000000	175.636863 
673.500000	177.286515 
674.000000	177.043901 
674.500000	176.027803 
675.000000	175.911553 
675.500000	175.842386 
676.000000	174.696409 
676.500000	172.884681 
677.000000	172.218795 
677.500000	172.427886 
678.000000	172.627636 
678.500000	170.438886 
679.000000	167.342000 
679.500000	164.101219 
680.000000	163.186295 
680.500000	163.377636 
681.000000	164.363765 
681.500000	163.631212 
682.000000	161.476977 
682.500000	158.089356 
683.000000	156.256431 
683.500000	154.936590 
684.000000	153.213189 
684.500000	151.409416 
685.000000	149.557810 
685.500000	147.265810 
686.000000	144.096318 
686.500000	141.210492 
687.000000	138.157454 
687.500000	134.991219 
688.000000	131.033886 
688.500000	128.904439 
689.000000	127.463409 
689.500000	126.147303 
690.000000	123.659446 
690.500000	120.004878 
691.000000	115.836636 
691.500000	112.732780 
692.000000	110.537992 
692.500000	108.712727 
693.000000	106.216484 
693.500000	103.427295 
694.000000	100.383378 
694.500000	97.174795  
695.000000	93.927318  
695.500000	92.200128  
696.000000	90.453174  
696.500000	89.100340  
697.000000	87.111090  
697.500000	84.696992  
698.000000	81.378265  
698.500000	78.042378  
699.000000	75.164333  
699.500000	72.815621  
700.000000	70.561318  
700.500000	68.423098  
701.000000	67.132946  
701.500000	65.826992  
702.000000	64.191060  
702.500000	61.596113  
703.000000	58.846424  
703.500000	56.723643  
704.000000	55.481037  
704.500000	54.471810  
705.000000	52.941583  
705.500000	51.349681  
706.000000	49.643590  
706.500000	48.439833  
707.000000	47.138098  
707.500000	46.106227  
708.000000	44.672674  
708.500000	42.998704  
709.000000	41.222704  
709.500000	39.864931  
710.000000	39.049333  
710.500000	38.426924  
711.000000	37.903204  
711.500000	37.060204  
712.000000	36.322969  
712.500000	34.888477  
713.000000	33.585106  
713.500000	32.611719  
714.000000	32.336249  
714.500000	31.732659  
715.000000	30.905045  
715.500000	29.682121  
716.000000	28.719015  
716.500000	27.803287  
717.000000	27.034840  
717.500000	26.382962  
718.000000	25.543242  
718.500000	24.859856  
719.000000	24.155757  
719.500000	23.540651  
720.000000	22.435931  
720.500000	21.566848  
721.000000	20.859212  
721.500000	20.616575  
722.000000	20.205621  
722.500000	19.591219  
723.000000	18.681030  
723.500000	18.067265  
724.000000	18.049522  
724.500000	17.998916  
725.000000	17.585878  
725.500000	16.928712  
726.000000	16.377401  
726.500000	16.058303  
727.000000	15.598356  
727.500000	15.232409  
728.000000	14.746371  
728.500000	14.679424  
729.000000	14.449856  
729.500000	14.347704  
730.000000	13.931553  
730.500000	13.654856  
731.000000	13.324560  
731.500000	12.906424  
732.000000	12.480068  
732.500000	12.182159  
733.000000	12.063795  
733.500000	11.791227  
734.000000	11.272757  
734.500000	10.817007  
735.000000	10.547477  
735.500000	10.460272  
736.000000	10.337537  
736.500000	10.208939  
737.000000	9.959242   
737.500000	9.588939   
738.000000	9.404674   
738.500000	9.571515   
739.000000	9.965386   
739.500000	9.911924   
740.000000	9.438924   
740.500000	8.748265   
741.000000	8.207856   
741.500000	7.861181   
742.000000	7.681878   
742.500000	7.817515   
743.000000	8.007924   
743.500000	7.848318   
744.000000	7.398083   
744.500000	7.093568   
745.000000	6.945492   
745.500000	6.793803   
746.000000	6.463068   
746.500000	6.215553   
747.000000	5.954189   
747.500000	5.927719   
748.000000	6.054939   
748.500000	6.270121   
749.000000	6.024265   
749.500000	5.648969   
750.000000	5.500931   
750.500000	5.702553   
751.000000	5.908030   
751.500000	6.025462   
752.000000	5.986265   
752.500000	5.862121   
753.000000	5.788189   
753.500000	5.833287   
754.000000	5.859636   
754.500000	5.579045   
755.000000	5.003219   
755.500000	4.511734   
756.000000	4.337492   
756.500000	4.373401   
757.000000	4.551499   
757.500000	4.657469   
758.000000	4.681666   
758.500000	4.538106   
759.000000	4.337666   
759.500000	4.330272   
760.000000	4.448696   
760.500000	4.577984   
761.000000	4.519545   
761.500000	4.443507   
762.000000	4.173083   
762.500000	3.953825   
763.000000	3.703386   
763.500000	3.733060   
764.000000	3.779840   
764.500000	4.004280   
765.000000	4.166712   
765.500000	4.203765   
766.000000	3.929992   
766.500000	3.690030   
767.000000	3.595250   
767.500000	3.654674   
768.000000	3.600545   
768.500000	3.632363   
769.000000	3.648378   
769.500000	3.588878   
770.000000	3.476590   
770.500000	3.510318   
771.000000	3.606575   
771.500000	3.554901   
772.000000	3.318393   
772.500000	3.082871   
773.000000	3.031916   
773.500000	3.078681   
774.000000	3.167310   
774.500000	3.136757   
775.000000	2.948734   
775.500000	2.853659   
776.000000	2.997909   
776.500000	3.237750   
777.000000	3.300090   
777.500000	3.208356   
778.000000	3.124871   
778.500000	3.122356   
779.000000	3.170969   
779.500000	3.220401   
780.000000	3.216143   
780.500000	3.109462   
781.000000	2.970795   
781.500000	2.803045   
782.000000	2.700340   
782.500000	2.612037   
783.000000	2.624507   
783.500000	2.730909   
784.000000	2.791530   
784.500000	2.743537   
785.000000	2.653992   
785.500000	2.653159   
786.000000	2.760454   
786.500000	2.881083   
787.000000	2.786992   
787.500000	2.515212   
788.000000	2.272560   
788.500000	2.223909   
789.000000	2.373621   
789.500000	2.562666   
790.000000	2.622174   
790.500000	2.536242   
791.000000	2.460234   
791.500000	2.632212   
792.000000	2.808939   
792.500000	2.792704   
793.000000	2.513719   
793.500000	2.427250   
794.000000	2.563772   
794.500000	2.771787   
795.000000	2.793007   
795.500000	2.673500   
796.000000	2.546530   
796.500000	2.553772   
797.000000	2.603000   
797.500000	2.577500   
798.000000	2.374431   
798.500000	2.346780   
799.000000	2.300984   
799.500000	2.198507   
800.000000	2.001257   
800.500000	1.994825   
801.000000	2.108030   
801.500000	2.218863   
802.000000	2.201840   
802.500000	2.044068   
803.000000	1.965265   
803.500000	1.919590   
804.000000	2.139007   
804.500000	2.254007   
805.000000	2.265803   
805.500000	2.220825   
806.000000	2.217977   
806.500000	1.951780   
807.000000	1.552159   
807.500000	1.285113   
808.000000	1.407196   
808.500000	1.697666   
809.000000	1.922719   
809.500000	2.086000   
810.000000	2.152878   
810.500000	1.956818   
811.000000	1.608181   
811.500000	1.284371   
812.000000	1.312984   
812.500000	1.513113   
813.000000	1.726590   
813.500000	1.653636   
814.000000	1.492946   
814.500000	1.288568   
815.000000	1.179265   
815.500000	1.191924   
816.000000	1.366348   
816.500000	1.695090   
817.000000	1.880424   
817.500000	1.934893   
818.000000	1.950090   
818.500000	1.951954   
819.000000	1.864719   
819.500000	1.689333   
820.000000	1.718977   
820.500000	1.756621   
821.000000	1.882416   
821.500000	1.964734   
822.000000	2.180825   
822.500000	2.143560   
823.000000	2.052015   
823.500000	2.049499   
824.000000	2.299136   
824.500000	2.390098   
825.000000	2.260977   
825.500000	2.147272   
826.000000	2.158424   
826.500000	2.154462   
827.000000	1.989409   
827.500000	1.930303   
828.000000	1.911757   
828.500000	2.004462   
829.000000	1.831537   
829.500000	1.674000   
830.000000	1.495507   
830.500000	1.514128   
831.000000	1.402272   
831.500000	1.242265   
832.000000	1.085500   
832.500000	1.083537   
833.000000	1.184689   
833.500000	1.265121   
834.000000	1.289500   
834.500000	1.239409   
835.000000	1.192075   
835.500000	1.184128   
836.000000	1.092810   
836.500000	0.975931   
837.000000	0.847750   
837.500000	0.875189   
838.000000	0.940833   
838.500000	0.883303   
839.000000	0.739621   
839.500000	0.684515   
840.000000	0.817931   
840.500000	0.817553   
841.000000	0.719931   
841.500000	0.579772   
842.000000	0.688553   
842.500000	0.862015   
843.000000	0.900356   
843.500000	0.747651   
844.000000	0.516818   
844.500000	0.495462   
845.000000	0.580628   
845.500000	0.573416   
846.000000	0.280401   
846.500000	0.033696   
847.000000	0.076992   
847.500000	0.393098   
848.000000	0.627621   
848.500000	0.618750   
849.000000	0.449674   
849.500000	0.384181   
850.000000	0.403810   
850.500000	0.418219   
851.000000	0.283196   
851.500000	0.182810   
852.000000	0.127075   
852.500000	0.202530   
853.000000	0.219757   
853.500000	0.272090   
854.000000	0.225356   
854.500000	0.147772   
855.000000	-0.025098  
855.500000	-0.157909  
856.000000	-0.159386  
856.500000	0.002651   
857.000000	0.141128   
857.500000	0.165007   
858.000000	0.100742   
858.500000	0.092128   
859.000000	0.052924   
859.500000	-0.026227  
860.000000	-0.184462  
860.500000	-0.186325  
861.000000	-0.183787  
861.500000	-0.063159  
862.000000	-0.002734  
862.500000	0.163878   
863.000000	0.154825   
863.500000	0.067856   
864.000000	-0.082000  
864.500000	0.015598   
865.000000	0.179295   
865.500000	0.295750   
866.000000	0.043939   
866.500000	-0.214409  
867.000000	-0.313060  
867.500000	-0.147825  
868.000000	-0.063151  
868.500000	-0.037825  
869.000000	-0.083295  
869.500000	-0.064098  
870.000000	-0.052151  
870.500000	-0.084818  
871.000000	-0.118848  
871.500000	-0.142674  
872.000000	-0.064712  
872.500000	-0.042878  
873.000000	-0.048727  
873.500000	-0.074265  
874.000000	0.021628   
874.500000	0.096393   
875.000000	0.174454   
875.500000	0.187734   
876.000000	0.135674   
876.500000	-0.003250  
877.000000	-0.097749  
877.500000	-0.063590  
878.000000	-0.053704  
878.500000	-0.111325  
879.000000	-0.276060  
879.500000	-0.345121  
880.000000	-0.406530  
880.500000	-0.248030  
881.000000	-0.044825  
881.500000	0.083969   
882.000000	-0.027666  
882.500000	-0.198462  
883.000000	-0.251984  
883.500000	-0.215424  
884.000000	-0.116075  
884.500000	-0.113439  
885.000000	-0.059007  
885.500000	-0.093931  
886.000000	-0.066219  
886.500000	0.007909   
887.000000	0.074507   
887.500000	-0.006068  
888.000000	-0.118606  
888.500000	-0.135628  
889.000000	-0.048590  
889.500000	-0.018681  
890.000000	-0.113613  
890.500000	-0.198575  
891.000000	-0.160818  
891.500000	-0.098318  
892.000000	-0.051303  
892.500000	-0.139030  
893.000000	-0.212833  
893.500000	-0.210484  
894.000000	-0.056393  
894.500000	-0.012825  
895.000000	-0.012810  
895.500000	-0.083749  
896.000000	0.031666   
896.500000	0.130931   
897.000000	0.161015   
897.500000	0.026545   
898.000000	-0.057590  
898.500000	-0.027719  
899.000000	0.030840   
899.500000	-0.079356  
900.000000	-0.433803  
900.500000	-0.922999  

