PE FL                   SPECTRUM    ASCII       PEDS        1.60        
  -1
S12R#63.SP
24/04/15
17:08:05.00
24/04/15
17:09:31.00
Jan

900.500000
1









LS55
405.00
5.00
5.00
SCAN
1
20
100
100
0
400
0
1
0
1
5
ON
900 405 
1 0 0
#HDR
-1
-1
#GR
NM

0.00002384185791015625
0.0
450.000000
0.500000
902
8
138.444151
-0.661000
#DATA
450.000000	-0.000999  
450.500000	-0.144356  
451.000000	-0.165393  
451.500000	-0.030318  
452.000000	0.257174   
452.500000	0.354151   
453.000000	0.111893   
453.500000	-0.299530  
454.000000	-0.342787  
454.500000	0.007507   
455.000000	0.232318   
455.500000	0.072537   
456.000000	-0.231689  
456.500000	-0.270113  
457.000000	-0.177371  
457.500000	-0.066022  
458.000000	-0.093674  
458.500000	0.048454   
459.000000	0.226916   
459.500000	0.253765   
460.000000	-0.040780  
460.500000	-0.406871  
461.000000	-0.415560  
461.500000	-0.092037  
462.000000	0.175325   
462.500000	0.098265   
463.000000	0.010393   
463.500000	0.043886   
464.000000	0.190151   
464.500000	0.173484   
465.000000	0.087499   
465.500000	-0.005787  
466.000000	-0.080553  
466.500000	-0.089583  
467.000000	-0.037090  
467.500000	-0.024280  
468.000000	-0.226803  
468.500000	-0.345477  
469.000000	-0.290424  
469.500000	-0.039166  
470.000000	0.062295   
470.500000	0.093098   
471.000000	-0.000181  
471.500000	-0.082507  
472.000000	-0.242060  
472.500000	-0.298234  
473.000000	-0.266265  
473.500000	-0.163825  
474.000000	-0.154833  
474.500000	0.020340   
475.000000	0.211848   
475.500000	0.335371   
476.000000	0.123863   
476.500000	-0.090924  
477.000000	-0.249083  
477.500000	-0.278151  
478.000000	-0.207500  
478.500000	-0.068977  
479.000000	-0.016136  
479.500000	-0.194909  
480.000000	-0.247651  
480.500000	-0.096659  
481.000000	0.055780   
481.500000	-0.080545  
482.000000	-0.309098  
482.500000	-0.334833  
483.000000	-0.171446  
483.500000	-0.070749  
484.000000	-0.020439  
484.500000	-0.047939  
485.000000	-0.084106  
485.500000	-0.172196  
486.000000	-0.180113  
486.500000	-0.099863  
487.000000	0.052537   
487.500000	0.122189   
488.000000	0.147666   
488.500000	0.202106   
489.000000	0.136030   
489.500000	0.054272   
490.000000	-0.110659  
490.500000	-0.069212  
491.000000	0.070416   
491.500000	0.218734   
492.000000	0.231871   
492.500000	0.279128   
493.000000	0.279234   
493.500000	0.298924   
494.000000	0.236242   
494.500000	0.160931   
495.000000	0.142704   
495.500000	0.113765   
496.000000	0.078583   
496.500000	0.110848   
497.000000	0.175416   
497.500000	0.243068   
498.000000	0.225863   
498.500000	0.253272   
499.000000	0.418803   
499.500000	0.616151   
500.000000	0.674340   
500.500000	0.609348   
501.000000	0.510037   
501.500000	0.486848   
502.000000	0.580719   
502.500000	0.708181   
503.000000	0.833833   
503.500000	0.928219   
504.000000	0.915242   
504.500000	0.832181   
505.000000	0.833568   
505.500000	1.048621   
506.000000	1.281863   
506.500000	1.509128   
507.000000	1.730750   
507.500000	1.791719   
508.000000	1.669424   
508.500000	1.598833   
509.000000	1.802553   
509.500000	1.994431   
510.000000	2.009810   
510.500000	2.075272   
511.000000	2.403871   
511.500000	2.712348   
512.000000	2.669628   
512.500000	2.476871   
513.000000	2.381772   
513.500000	2.545954   
514.000000	2.745378   
514.500000	3.002075   
515.000000	3.117833   
515.500000	3.195227   
516.000000	3.105280   
516.500000	3.170136   
517.000000	3.177378   
517.500000	3.227946   
518.000000	2.992901   
518.500000	2.852386   
519.000000	2.723704   
519.500000	2.923689   
520.000000	3.199825   
520.500000	3.481871   
521.000000	3.478325   
521.500000	3.336931   
522.000000	3.193348   
522.500000	3.237007   
523.000000	3.477424   
523.500000	3.778606   
524.000000	3.820787   
524.500000	3.666893   
525.000000	3.668022   
525.500000	3.818772   
526.000000	3.977666   
526.500000	3.905924   
527.000000	3.902840   
527.500000	4.017651   
528.000000	4.492780   
528.500000	4.857969   
529.000000	5.081848   
529.500000	5.063606   
530.000000	5.299348   
530.500000	5.760522   
531.000000	5.991128   
531.500000	5.846734   
532.000000	5.794174   
532.500000	6.096075   
533.000000	6.429916   
533.500000	6.673636   
534.000000	6.826931   
534.500000	7.369886   
535.000000	8.081303   
535.500000	8.599477   
536.000000	8.553992   
536.500000	8.672787   
537.000000	9.276765   
537.500000	10.135969  
538.000000	10.411818  
538.500000	10.367318  
539.000000	10.630931  
539.500000	11.466772  
540.000000	12.266772  
540.500000	12.954121  
541.000000	13.394568  
541.500000	13.984053  
542.000000	14.215840  
542.500000	13.926780  
543.000000	13.152280  
543.500000	12.742924  
544.000000	12.827424  
544.500000	12.771795  
545.000000	12.366310  
545.500000	11.547840  
546.000000	10.949446  
546.500000	10.157242  
547.000000	9.448712   
547.500000	8.753727   
548.000000	8.282507   
548.500000	7.615659   
549.000000	6.904492   
549.500000	6.272696   
550.000000	5.640098   
550.500000	5.184318   
551.000000	4.807909   
551.500000	4.624446   
552.000000	4.326719   
552.500000	4.183265   
553.000000	4.080530   
553.500000	4.016340   
554.000000	3.654098   
554.500000	3.411045   
555.000000	3.441984   
555.500000	3.569606   
556.000000	3.432325   
556.500000	3.126045   
557.000000	2.899303   
557.500000	2.890181   
558.000000	3.091780   
558.500000	3.252500   
559.000000	3.313780   
559.500000	3.288227   
560.000000	3.183893   
560.500000	3.164166   
561.000000	3.215143   
561.500000	3.366363   
562.000000	3.322628   
562.500000	3.299000   
563.000000	3.146386   
563.500000	3.130575   
564.000000	2.990712   
564.500000	3.023090   
565.000000	3.176924   
565.500000	3.388590   
566.000000	3.564515   
566.500000	3.553507   
567.000000	3.392000   
567.500000	2.982333   
568.000000	2.930083   
568.500000	3.350825   
569.000000	3.978924   
569.500000	3.949962   
570.000000	3.353613   
570.500000	2.823628   
571.000000	2.853416   
571.500000	3.203348   
572.000000	3.369174   
572.500000	3.284871   
573.000000	3.190492   
573.500000	3.212333   
574.000000	3.326348   
574.500000	3.486469   
575.000000	3.645424   
575.500000	3.669901   
576.000000	3.600196   
576.500000	3.565257   
577.000000	3.671530   
577.500000	3.750886   
578.000000	3.623568   
578.500000	3.320696   
579.000000	3.064219   
579.500000	2.998318   
580.000000	3.186113   
580.500000	3.374037   
581.000000	3.533939   
581.500000	3.705492   
582.000000	3.910280   
582.500000	4.055159   
583.000000	3.970106   
583.500000	3.791000   
584.000000	3.621530   
584.500000	3.651378   
585.000000	3.675787   
585.500000	3.827598   
586.000000	3.878257   
586.500000	3.845515   
587.000000	3.680227   
587.500000	3.576537   
588.000000	3.756098   
588.500000	4.076772   
589.000000	4.515227   
589.500000	4.883939   
590.000000	5.104500   
590.500000	4.955780   
591.000000	4.660272   
591.500000	4.325378   
592.000000	4.167590   
592.500000	4.169871   
593.000000	4.390083   
593.500000	4.669045   
594.000000	5.101643   
594.500000	5.406303   
595.000000	5.617310   
595.500000	5.480265   
596.000000	5.361537   
596.500000	5.214143   
597.000000	5.292174   
597.500000	5.504954   
598.000000	5.937257   
598.500000	6.143037   
599.000000	6.081469   
599.500000	5.933416   
600.000000	6.006939   
600.500000	6.161477   
601.000000	6.338583   
601.500000	6.491780   
602.000000	6.759227   
602.500000	7.073818   
603.000000	7.261750   
603.500000	7.323128   
604.000000	7.333742   
604.500000	7.611856   
605.000000	7.916515   
605.500000	8.353689   
606.000000	8.864242   
606.500000	9.625704   
607.000000	10.049022  
607.500000	10.036522  
608.000000	9.688696   
608.500000	9.878128   
609.000000	10.424757  
609.500000	11.272310  
610.000000	11.583386  
610.500000	11.991772  
611.000000	12.125833  
611.500000	12.495977  
612.000000	12.249098  
612.500000	12.628818  
613.000000	13.511878  
613.500000	14.628189  
614.000000	14.842795  
614.500000	14.588075  
615.000000	14.781174  
615.500000	15.454886  
616.000000	16.218757  
616.500000	16.643295  
617.000000	17.125287  
617.500000	17.491340  
618.000000	17.945598  
618.500000	18.890303  
619.000000	20.021901  
619.500000	21.139325  
620.000000	21.661348  
620.500000	22.532151  
621.000000	23.468946  
621.500000	24.715401  
622.000000	25.597560  
622.500000	26.251363  
623.000000	26.670401  
623.500000	27.176007  
624.000000	28.038833  
624.500000	28.969166  
625.000000	30.066257  
625.500000	31.054128  
626.000000	32.101030  
626.500000	33.150977  
627.000000	34.230689  
627.500000	35.624356  
628.000000	37.292795  
628.500000	38.677143  
629.000000	39.547856  
629.500000	40.208749  
630.000000	41.859462  
630.500000	43.564454  
631.000000	44.876007  
631.500000	45.459424  
632.000000	47.409499  
632.500000	49.707424  
633.000000	51.600431  
633.500000	52.469022  
634.000000	53.758431  
634.500000	55.850227  
635.000000	58.101704  
635.500000	59.542242  
636.000000	60.356749  
636.500000	61.634545  
637.000000	63.472348  
637.500000	65.352757  
638.000000	67.738643  
638.500000	70.139772  
639.000000	71.944053  
639.500000	71.977166  
640.000000	72.228924  
640.500000	73.938151  
641.000000	77.188628  
641.500000	79.960462  
642.000000	81.342742  
642.500000	82.284340  
643.000000	83.378621  
643.500000	85.425969  
644.000000	87.476984  
644.500000	89.014007  
645.000000	89.936780  
645.500000	91.137939  
646.000000	93.269075  
646.500000	96.148500  
647.000000	99.057787  
647.500000	100.599363 
648.000000	101.568068 
648.500000	102.989856 
649.000000	104.708454 
649.500000	106.437053 
650.000000	107.523840 
650.500000	108.824363 
651.000000	110.584537 
651.500000	112.706462 
652.000000	114.505500 
652.500000	116.503924 
653.000000	118.287348 
653.500000	119.579424 
654.000000	119.882590 
654.500000	120.198287 
655.000000	121.497060 
655.500000	123.257643 
656.000000	124.676795 
656.500000	125.962204 
657.000000	127.665939 
657.500000	128.830689 
658.000000	129.327984 
658.500000	129.768022 
659.000000	131.305568 
659.500000	132.933136 
660.000000	133.723393 
660.500000	134.461227 
661.000000	135.517045 
661.500000	137.011780 
662.000000	136.825318 
662.500000	136.158310 
663.000000	136.141325 
663.500000	137.522037 
664.000000	138.057628 
664.500000	138.389303 
665.000000	138.084189 
665.500000	138.169946 
666.000000	138.444151 
666.500000	138.284886 
667.000000	137.995984 
667.500000	137.666037 
668.000000	137.739166 
668.500000	137.411818 
669.000000	137.184469 
669.500000	136.348613 
670.000000	136.054128 
670.500000	135.999613 
671.000000	135.959227 
671.500000	135.699363 
672.000000	134.815151 
672.500000	133.281727 
673.000000	131.134992 
673.500000	128.721643 
674.000000	127.435045 
674.500000	127.284742 
675.000000	127.080386 
675.500000	125.171416 
676.000000	123.377750 
676.500000	122.079856 
677.000000	120.754560 
677.500000	118.929833 
678.000000	117.727075 
678.500000	117.148878 
679.000000	115.901143 
679.500000	113.175537 
680.000000	109.920818 
680.500000	107.202916 
681.000000	105.044272 
681.500000	103.113083 
682.000000	101.498212 
682.500000	100.600037 
683.000000	99.493545  
683.500000	98.018143  
684.000000	95.036075  
684.500000	92.772696  
685.000000	90.579590  
685.500000	89.289000  
686.000000	86.837416  
686.500000	84.416984  
687.000000	81.410371  
687.500000	78.845075  
688.000000	76.692386  
688.500000	75.087621  
689.000000	73.771363  
689.500000	72.155151  
690.000000	70.626196  
690.500000	68.623113  
691.000000	66.356742  
691.500000	63.947962  
692.000000	61.722492  
692.500000	60.068469  
693.000000	58.698030  
693.500000	57.632522  
694.000000	56.265113  
694.500000	54.435462  
695.000000	52.188196  
695.500000	49.845484  
696.000000	48.474386  
696.500000	47.645181  
697.000000	46.933878  
697.500000	45.213787  
698.000000	43.560090  
698.500000	42.344606  
699.000000	41.631303  
699.500000	40.335325  
700.000000	38.730340  
700.500000	36.761818  
701.000000	35.187795  
701.500000	33.687666  
702.000000	33.486818  
702.500000	33.474659  
703.000000	33.305750  
703.500000	31.647257  
704.000000	30.250212  
704.500000	29.164000  
705.000000	28.621681  
705.500000	27.825856  
706.000000	27.285742  
706.500000	26.202848  
707.000000	24.710772  
707.500000	23.083560  
708.000000	22.418757  
708.500000	22.368136  
709.000000	22.536219  
709.500000	22.163522  
710.000000	21.501136  
710.500000	21.090787  
711.000000	20.827257  
711.500000	20.464613  
712.000000	19.431007  
712.500000	18.777507  
713.000000	18.431992  
713.500000	18.411477  
714.000000	17.796575  
714.500000	17.398333  
715.000000	17.149939  
715.500000	17.113462  
716.000000	16.784250  
716.500000	16.241045  
717.000000	15.720265  
717.500000	15.246871  
718.000000	14.567174  
718.500000	13.849348  
719.000000	13.471568  
719.500000	13.421446  
720.000000	13.051954  
720.500000	12.480825  
721.000000	12.036734  
721.500000	12.221310  
722.000000	12.397075  
722.500000	12.379143  
723.000000	11.758787  
723.500000	10.848636  
724.000000	10.187007  
724.500000	9.929674   
725.000000	10.069560  
725.500000	10.066431  
726.000000	9.945219   
726.500000	9.599992   
727.000000	9.421265   
727.500000	9.186727   
728.000000	9.039174   
728.500000	8.677537   
729.000000	8.481181   
729.500000	8.534393   
730.000000	8.526878   
730.500000	8.301166   
731.000000	8.028810   
731.500000	7.933272   
732.000000	7.915121   
732.500000	7.821280   
733.000000	7.577348   
733.500000	7.462393   
734.000000	7.497159   
734.500000	7.334363   
735.000000	7.045075   
735.500000	6.687909   
736.000000	6.777628   
736.500000	6.955734   
737.000000	7.155840   
737.500000	7.098545   
738.000000	7.002833   
738.500000	6.571507   
739.000000	5.995946   
739.500000	5.611295   
740.000000	5.672159   
740.500000	5.974196   
741.000000	6.025227   
741.500000	5.890303   
742.000000	5.694075   
742.500000	5.658371   
743.000000	5.643893   
743.500000	5.730030   
744.000000	5.691265   
744.500000	5.509749   
745.000000	5.154568   
745.500000	4.882075   
746.000000	4.736128   
746.500000	4.677954   
747.000000	4.599045   
747.500000	4.541946   
748.000000	4.614242   
748.500000	4.814227   
749.000000	5.052704   
749.500000	5.159204   
750.000000	5.125765   
750.500000	4.837742   
751.000000	4.413901   
751.500000	4.065893   
752.000000	4.021318   
752.500000	4.307295   
753.000000	4.506674   
753.500000	4.410159   
754.000000	4.116696   
754.500000	4.086416   
755.000000	4.082136   
755.500000	3.972499   
756.000000	3.629606   
756.500000	3.548136   
757.000000	3.684053   
757.500000	3.921825   
758.000000	3.911606   
758.500000	3.826704   
759.000000	3.786727   
759.500000	3.888681   
760.000000	3.950378   
760.500000	3.834500   
761.000000	3.608424   
761.500000	3.383303   
762.000000	3.351287   
762.500000	3.352431   
763.000000	3.486696   
763.500000	3.514863   
764.000000	3.455719   
764.500000	3.351333   
765.000000	3.288765   
765.500000	3.272893   
766.000000	3.183234   
766.500000	3.178568   
767.000000	3.107962   
767.500000	3.140121   
768.000000	3.260166   
768.500000	3.480992   
769.000000	3.576477   
769.500000	3.363803   
770.000000	3.092053   
770.500000	2.838818   
771.000000	2.848704   
771.500000	2.891143   
772.000000	3.115106   
772.500000	3.200234   
773.000000	3.224719   
773.500000	3.174265   
774.000000	3.223901   
774.500000	3.188734   
775.000000	3.153962   
775.500000	3.016643   
776.000000	2.943015   
776.500000	2.904060   
777.000000	3.019946   
777.500000	3.129356   
778.000000	3.193318   
778.500000	3.144628   
779.000000	3.066742   
779.500000	3.047696   
780.000000	3.050810   
780.500000	3.057477   
781.000000	3.130189   
781.500000	3.245022   
782.000000	3.214250   
782.500000	2.985386   
783.000000	2.820401   
783.500000	2.851416   
784.000000	2.945265   
784.500000	2.918962   
785.000000	2.857462   
785.500000	2.863257   
786.000000	2.871742   
786.500000	2.887060   
787.000000	2.832007   
787.500000	2.763393   
788.000000	2.517234   
788.500000	2.386598   
789.000000	2.386151   
789.500000	2.627333   
790.000000	2.651848   
790.500000	2.489234   
791.000000	2.184143   
791.500000	2.171954   
792.000000	2.368590   
792.500000	2.675500   
793.000000	2.922265   
793.500000	2.970575   
794.000000	2.866090   
794.500000	2.539287   
795.000000	2.360143   
795.500000	2.296242   
796.000000	2.388606   
796.500000	2.406204   
797.000000	2.356083   
797.500000	2.333939   
798.000000	2.340984   
798.500000	2.484219   
799.000000	2.390992   
799.500000	2.229287   
800.000000	1.888378   
800.500000	1.865318   
801.000000	1.922439   
801.500000	2.081840   
802.000000	1.966780   
802.500000	1.964909   
803.000000	1.916765   
803.500000	1.929977   
804.000000	1.882090   
804.500000	1.875659   
805.000000	1.836310   
805.500000	1.855750   
806.000000	1.721469   
806.500000	1.581598   
807.000000	1.421992   
807.500000	1.412295   
808.000000	1.507780   
808.500000	1.735287   
809.000000	1.831363   
809.500000	1.875189   
810.000000	1.681954   
810.500000	1.536189   
811.000000	1.476363   
811.500000	1.473734   
812.000000	1.524113   
812.500000	1.658840   
813.000000	1.736409   
813.500000	1.671128   
814.000000	1.477318   
814.500000	1.311704   
815.000000	1.189068   
815.500000	1.291431   
816.000000	1.460780   
816.500000	1.739113   
817.000000	1.829674   
817.500000	1.772492   
818.000000	1.624613   
818.500000	1.506863   
819.000000	1.484787   
819.500000	1.529613   
820.000000	1.638984   
820.500000	1.683825   
821.000000	1.780477   
821.500000	1.967075   
822.000000	2.230393   
822.500000	2.353863   
823.000000	2.266795   
823.500000	2.226416   
824.000000	2.394310   
824.500000	2.657924   
825.000000	2.738803   
825.500000	2.549757   
826.000000	2.392575   
826.500000	2.370795   
827.000000	2.348553   
827.500000	2.091431   
828.000000	1.780303   
828.500000	1.626750   
829.000000	1.660946   
829.500000	1.694575   
830.000000	1.745992   
830.500000	1.699053   
831.000000	1.543575   
831.500000	1.278946   
832.000000	1.262863   
832.500000	1.360742   
833.000000	1.428734   
833.500000	1.231825   
834.000000	0.982522   
834.500000	0.862113   
835.000000	0.932583   
835.500000	0.955863   
836.000000	0.806689   
836.500000	0.564780   
837.000000	0.472462   
837.500000	0.652924   
838.000000	0.968098   
838.500000	1.154060   
839.000000	1.100242   
839.500000	0.912522   
840.000000	0.720204   
840.500000	0.734045   
841.000000	0.865689   
841.500000	1.019431   
842.000000	0.951386   
842.500000	0.868090   
843.000000	0.832825   
843.500000	0.922310   
844.000000	0.912090   
844.500000	0.853931   
845.000000	0.715606   
845.500000	0.509204   
846.000000	0.254825   
846.500000	0.240674   
847.000000	0.342409   
847.500000	0.411015   
848.000000	0.189462   
848.500000	0.123234   
849.000000	0.151803   
849.500000	0.256469   
850.000000	0.209750   
850.500000	0.230507   
851.000000	0.201484   
851.500000	0.156371   
852.000000	0.086106   
852.500000	0.062545   
853.000000	0.089825   
853.500000	0.113174   
854.000000	0.125651   
854.500000	0.144181   
855.000000	0.164371   
855.500000	0.224022   
856.000000	0.171000   
856.500000	0.002462   
857.000000	-0.183659  
857.500000	-0.188401  
858.000000	-0.127068  
858.500000	-0.046287  
859.000000	-0.071568  
859.500000	-0.089462  
860.000000	-0.101522  
860.500000	0.016757   
861.000000	0.089704   
861.500000	0.089560   
862.000000	-0.091060  
862.500000	-0.191454  
863.000000	-0.247446  
863.500000	-0.181060  
864.000000	-0.076696  
864.500000	0.058643   
865.000000	0.154719   
865.500000	0.168136   
866.000000	0.081219   
866.500000	0.027310   
867.000000	0.079212   
867.500000	0.128825   
868.000000	0.020712   
868.500000	-0.183250  
869.000000	-0.283712  
869.500000	-0.149363  
870.000000	-0.078462  
870.500000	-0.065651  
871.000000	-0.094803  
871.500000	-0.031613  
872.000000	-0.025083  
872.500000	-0.044143  
873.000000	-0.122848  
873.500000	-0.167803  
874.000000	-0.191378  
874.500000	-0.174500  
875.000000	-0.125492  
875.500000	-0.092083  
876.000000	-0.078196  
876.500000	-0.069765  
877.000000	-0.111628  
877.500000	-0.124219  
878.000000	-0.096234  
878.500000	-0.057734  
879.000000	-0.085454  
879.500000	-0.135848  
880.000000	-0.107204  
880.500000	-0.001659  
881.000000	0.049212   
881.500000	0.026333   
882.000000	0.037098   
882.500000	0.136310   
883.000000	0.212863   
883.500000	0.181886   
884.000000	0.032696   
884.500000	-0.057962  
885.000000	-0.089000  
885.500000	-0.036840  
886.000000	-0.085181  
886.500000	-0.164537  
887.000000	-0.219666  
887.500000	-0.134727  
888.000000	-0.026545  
888.500000	0.065674   
889.000000	0.034643   
889.500000	-0.050000  
890.000000	-0.167696  
890.500000	-0.219628  
891.000000	-0.117537  
891.500000	-0.008727  
892.000000	0.058159   
892.500000	0.048484   
893.000000	0.073136   
893.500000	0.056742   
894.000000	0.004757   
894.500000	-0.148992  
895.000000	-0.208227  
895.500000	-0.150098  
896.000000	0.030621   
896.500000	0.014272   
897.000000	-0.148931  
897.500000	-0.281643  
898.000000	-0.187901  
898.500000	-0.056780  
899.000000	-0.028363  
899.500000	-0.136575  
900.000000	-0.335219  
900.500000	-0.661000  

