PE FL                   SPECTRUM    ASCII       PEDS        1.60        
  -1
S12R#57.SP
24/04/15
16:59:32.00
24/04/15
17:00:58.00
Jan

900.500000
1









LS55
405.00
5.00
5.00
SCAN
1
20
100
100
0
400
0
1
0
1
5
ON
900 405 
1 0 0
#HDR
-1
-1
#GR
NM

0.00002384185791015625
0.0
450.000000
0.500000
902
8
147.359560
-0.937000
#DATA
450.000000	-0.937000  
450.500000	-0.435765  
451.000000	-0.191015  
451.500000	-0.143295  
452.000000	-0.079340  
452.500000	0.067553   
453.000000	0.056856   
453.500000	-0.133916  
454.000000	-0.256977  
454.500000	-0.128613  
455.000000	0.064984   
455.500000	0.082962   
456.000000	0.002795   
456.500000	-0.040674  
457.000000	0.026954   
457.500000	0.053871   
458.000000	0.075015   
458.500000	0.002409   
459.000000	-0.098886  
459.500000	-0.221780  
460.000000	-0.177348  
460.500000	-0.056939  
461.000000	-0.101727  
461.500000	-0.264689  
462.000000	-0.243318  
462.500000	0.046893   
463.000000	0.273909   
463.500000	0.294439   
464.000000	0.164439   
464.500000	-0.029931  
465.000000	-0.253189  
465.500000	-0.388946  
466.000000	-0.335340  
466.500000	-0.284939  
467.000000	-0.274477  
467.500000	-0.180393  
468.000000	-0.025204  
468.500000	-0.013916  
469.000000	-0.144166  
469.500000	-0.223128  
470.000000	-0.206651  
470.500000	-0.117143  
471.000000	-0.034000  
471.500000	0.029583   
472.000000	-0.021856  
472.500000	-0.154212  
473.000000	-0.283712  
473.500000	-0.320189  
474.000000	-0.388348  
474.500000	-0.358772  
475.000000	-0.238318  
475.500000	-0.026477  
476.000000	-0.042757  
476.500000	-0.195098  
477.000000	-0.383666  
477.500000	-0.293643  
478.000000	-0.059803  
478.500000	0.151712   
479.000000	0.204530   
479.500000	0.126462   
480.000000	-0.028757  
480.500000	-0.208454  
481.000000	-0.243696  
481.500000	-0.279159  
482.000000	-0.229666  
482.500000	-0.272098  
483.000000	-0.167257  
483.500000	-0.138310  
484.000000	-0.081848  
484.500000	-0.105810  
485.000000	-0.014863  
485.500000	-0.037507  
486.000000	-0.005893  
486.500000	-0.004106  
487.000000	0.019553   
487.500000	-0.026075  
488.000000	-0.112575  
488.500000	-0.248659  
489.000000	-0.364227  
489.500000	-0.387204  
490.000000	-0.274613  
490.500000	-0.057257  
491.000000	0.009954   
491.500000	-0.004121  
492.000000	-0.104803  
492.500000	-0.003742  
493.000000	0.172401   
493.500000	0.335803   
494.000000	0.242757   
494.500000	0.260143   
495.000000	0.346840   
495.500000	0.483356   
496.000000	0.451734   
496.500000	0.387424   
497.000000	0.381181   
497.500000	0.458537   
498.000000	0.444712   
498.500000	0.375068   
499.000000	0.344295   
499.500000	0.480689   
500.000000	0.700159   
500.500000	0.817909   
501.000000	0.716181   
501.500000	0.630075   
502.000000	0.688803   
502.500000	0.795984   
503.000000	0.875174   
503.500000	0.891272   
504.000000	0.900643   
504.500000	0.963174   
505.000000	0.967439   
505.500000	0.953340   
506.000000	0.928666   
506.500000	1.112348   
507.000000	1.356492   
507.500000	1.678045   
508.000000	1.806121   
508.500000	1.966151   
509.000000	2.160159   
509.500000	2.435393   
510.000000	2.626098   
510.500000	2.668234   
511.000000	2.632537   
511.500000	2.608356   
512.000000	2.622295   
512.500000	2.671204   
513.000000	2.755477   
513.500000	2.806189   
514.000000	2.815560   
514.500000	2.878037   
515.000000	2.983083   
515.500000	3.024507   
516.000000	3.101393   
516.500000	3.216007   
517.000000	3.215810   
517.500000	2.968598   
518.000000	2.857659   
518.500000	2.987583   
519.000000	3.171833   
519.500000	3.137878   
520.000000	3.090257   
520.500000	3.165204   
521.000000	3.207265   
521.500000	3.164984   
522.000000	3.197863   
522.500000	3.438106   
523.000000	3.571083   
523.500000	3.482015   
524.000000	3.308757   
524.500000	3.395128   
525.000000	3.665848   
525.500000	4.008363   
526.000000	4.340545   
526.500000	4.503113   
527.000000	4.480030   
527.500000	4.479931   
528.000000	4.836757   
528.500000	5.322234   
529.000000	5.513083   
529.500000	5.285962   
530.000000	5.040871   
530.500000	4.906825   
531.000000	5.173507   
531.500000	5.546522   
532.000000	6.004068   
532.500000	6.140363   
533.000000	6.128674   
533.500000	6.049734   
534.000000	6.411257   
534.500000	6.907749   
535.000000	7.405333   
535.500000	7.806492   
536.000000	8.163287   
536.500000	8.505212   
537.000000	8.913265   
537.500000	9.662462   
538.000000	10.711401  
538.500000	11.349659  
539.000000	11.609106  
539.500000	11.913000  
540.000000	12.760924  
540.500000	13.271075  
541.000000	13.578272  
541.500000	13.544659  
542.000000	13.701795  
542.500000	13.458871  
543.000000	13.078053  
543.500000	12.762409  
544.000000	12.657333  
544.500000	12.462818  
545.000000	11.869954  
545.500000	11.274000  
546.000000	10.391136  
546.500000	9.755378   
547.000000	8.978863   
547.500000	8.516409   
548.000000	7.940628   
548.500000	7.405287   
549.000000	6.822560   
549.500000	6.420871   
550.000000	6.120674   
550.500000	5.615340   
551.000000	5.020159   
551.500000	4.464136   
552.000000	4.192189   
552.500000	4.087742   
553.000000	4.105287   
553.500000	4.085469   
554.000000	3.806765   
554.500000	3.389310   
555.000000	3.107507   
555.500000	3.131030   
556.000000	3.189893   
556.500000	3.145250   
557.000000	3.129924   
557.500000	3.159689   
558.000000	3.230515   
558.500000	3.174545   
559.000000	3.048454   
559.500000	2.967106   
560.000000	3.059606   
560.500000	3.075113   
561.000000	3.020371   
561.500000	2.995977   
562.000000	3.076825   
562.500000	3.281469   
563.000000	3.408628   
563.500000	3.459007   
564.000000	3.444446   
564.500000	3.410098   
565.000000	3.302090   
565.500000	3.155780   
566.000000	3.022507   
566.500000	2.976515   
567.000000	3.141583   
567.500000	3.320803   
568.000000	3.466856   
568.500000	3.334946   
569.000000	3.068787   
569.500000	2.904530   
570.000000	3.024098   
570.500000	3.161090   
571.000000	3.219022   
571.500000	3.057818   
572.000000	3.070409   
572.500000	3.094674   
573.000000	3.226204   
573.500000	3.193909   
574.000000	3.245287   
574.500000	3.220772   
575.000000	3.327803   
575.500000	3.360340   
576.000000	3.543106   
576.500000	3.668431   
577.000000	3.704659   
577.500000	3.565318   
578.000000	3.411007   
578.500000	3.326409   
579.000000	3.408916   
579.500000	3.562848   
580.000000	3.541643   
580.500000	3.553969   
581.000000	3.438666   
581.500000	3.372924   
582.000000	3.318833   
582.500000	3.401750   
583.000000	3.500060   
583.500000	3.539234   
584.000000	3.439628   
584.500000	3.347098   
585.000000	3.356507   
585.500000	3.427409   
586.000000	3.457325   
586.500000	3.394416   
587.000000	3.395250   
587.500000	3.584356   
588.000000	3.751628   
588.500000	3.834333   
589.000000	3.902037   
589.500000	3.885477   
590.000000	3.842810   
590.500000	3.769310   
591.000000	3.967696   
591.500000	4.187371   
592.000000	4.218863   
592.500000	4.164613   
593.000000	4.231560   
593.500000	4.408310   
594.000000	4.443409   
594.500000	4.617106   
595.000000	4.862371   
595.500000	5.180924   
596.000000	5.248424   
596.500000	5.316507   
597.000000	5.291848   
597.500000	5.156787   
598.000000	5.124515   
598.500000	5.412696   
599.000000	5.861333   
599.500000	6.096916   
600.000000	6.131939   
600.500000	6.292893   
601.000000	6.666742   
601.500000	6.969068   
602.000000	6.775818   
602.500000	6.598651   
603.000000	6.712015   
603.500000	7.248265   
604.000000	7.437037   
604.500000	7.315310   
605.000000	7.371424   
605.500000	8.056151   
606.000000	8.782030   
606.500000	9.068537   
607.000000	9.029454   
607.500000	9.004075   
608.000000	9.425628   
608.500000	9.749530   
609.000000	9.953075   
609.500000	10.017090  
610.000000	10.309234  
610.500000	10.668068  
611.000000	11.046196  
611.500000	11.328583  
612.000000	11.603750  
612.500000	12.012840  
613.000000	12.343181  
613.500000	13.016893  
614.000000	13.873553  
614.500000	15.014318  
615.000000	15.726174  
615.500000	16.218893  
616.000000	16.174795  
616.500000	16.384257  
617.000000	16.608393  
617.500000	17.285060  
618.000000	17.952242  
618.500000	18.919484  
619.000000	19.716303  
619.500000	20.488954  
620.000000	20.938371  
620.500000	21.537833  
621.000000	22.100166  
621.500000	22.671901  
622.000000	23.060674  
622.500000	23.868636  
623.000000	25.207424  
623.500000	26.924962  
624.000000	28.176893  
624.500000	28.971401  
625.000000	29.401181  
625.500000	29.917363  
626.000000	30.270136  
626.500000	31.218075  
627.000000	32.833674  
627.500000	34.835143  
628.000000	36.033121  
628.500000	36.653916  
629.000000	37.112946  
629.500000	38.228909  
630.000000	39.989174  
630.500000	42.434492  
631.000000	44.741651  
631.500000	45.873530  
632.000000	46.256363  
632.500000	46.890621  
633.000000	48.480545  
633.500000	49.970083  
634.000000	51.901795  
634.500000	53.918787  
635.000000	56.101962  
635.500000	57.448901  
636.000000	58.819113  
636.500000	60.622583  
637.000000	62.214424  
637.500000	63.249181  
638.000000	64.293522  
638.500000	66.549409  
639.000000	68.993522  
639.500000	70.672446  
640.000000	71.809409  
640.500000	73.193553  
641.000000	75.200871  
641.500000	76.869257  
642.000000	78.583818  
642.500000	80.204545  
643.000000	82.537265  
643.500000	85.240166  
644.000000	87.415742  
644.500000	89.384431  
645.000000	91.299946  
645.500000	93.918765  
646.000000	95.817212  
646.500000	96.955734  
647.000000	97.179121  
647.500000	98.028431  
648.000000	99.095295  
648.500000	100.700393 
649.000000	103.160924 
649.500000	106.131901 
650.000000	108.653128 
650.500000	110.340916 
651.000000	111.449295 
651.500000	112.482689 
652.000000	113.761530 
652.500000	115.629143 
653.000000	118.303962 
653.500000	121.084969 
654.000000	122.959765 
654.500000	123.756825 
655.000000	124.853060 
655.500000	126.149469 
656.000000	126.868340 
656.500000	127.430878 
657.000000	128.656712 
657.500000	130.559340 
658.000000	132.050500 
658.500000	133.150106 
659.000000	134.447871 
659.500000	135.850424 
660.000000	136.073954 
660.500000	136.735015 
661.000000	138.101946 
661.500000	139.533045 
662.000000	140.150477 
662.500000	141.082037 
663.000000	141.905795 
663.500000	143.072583 
664.000000	142.551696 
664.500000	142.065590 
665.000000	142.623568 
665.500000	144.728681 
666.000000	146.312734 
666.500000	147.252704 
667.000000	147.359560 
667.500000	147.277545 
668.000000	145.469590 
668.500000	143.378515 
669.000000	142.443212 
669.500000	143.692303 
670.000000	144.349681 
670.500000	145.041469 
671.000000	144.443666 
671.500000	143.555068 
672.000000	141.636424 
672.500000	139.337037 
673.000000	137.402636 
673.500000	136.658750 
674.000000	136.885583 
674.500000	137.302598 
675.000000	137.293136 
675.500000	136.387727 
676.000000	134.300409 
676.500000	132.321401 
677.000000	130.740492 
677.500000	130.307174 
678.000000	128.077803 
678.500000	125.125477 
679.000000	122.476795 
679.500000	122.362515 
680.000000	122.227075 
680.500000	121.004696 
681.000000	117.957780 
681.500000	114.855106 
682.000000	111.418507 
682.500000	109.337196 
683.000000	107.881590 
683.500000	107.135659 
684.000000	104.368227 
684.500000	100.808401 
685.000000	97.514939  
685.500000	95.641053  
686.000000	94.267000  
686.500000	92.083477  
687.000000	89.691083  
687.500000	86.939393  
688.000000	85.546636  
688.500000	83.873916  
689.000000	81.980939  
689.500000	78.865780  
690.000000	76.588113  
690.500000	75.104454  
691.000000	73.809356  
691.500000	71.337234  
692.000000	67.930757  
692.500000	65.290515  
693.000000	63.900121  
693.500000	63.052151  
694.000000	61.411060  
694.500000	59.763250  
695.000000	57.865765  
695.500000	56.386090  
696.000000	53.905060  
696.500000	51.955651  
697.000000	50.492666  
697.500000	50.121492  
698.000000	49.118871  
698.500000	47.909196  
699.000000	45.942537  
699.500000	44.119098  
700.000000	42.242575  
700.500000	41.309090  
701.000000	40.679560  
701.500000	39.582212  
702.000000	37.545090  
702.500000	36.094643  
703.000000	35.561984  
703.500000	35.456575  
704.000000	34.281030  
704.500000	32.400280  
705.000000	30.909818  
705.500000	30.457310  
706.000000	29.934818  
706.500000	29.147750  
707.000000	27.839636  
707.500000	26.872037  
708.000000	25.577787  
708.500000	24.517742  
709.000000	23.859469  
709.500000	23.989704  
710.000000	23.693090  
710.500000	23.267227  
711.000000	22.650454  
711.500000	22.303136  
712.000000	21.723704  
712.500000	20.868606  
713.000000	20.072280  
713.500000	19.488659  
714.000000	18.988060  
714.500000	18.168575  
715.000000	17.369719  
715.500000	16.906765  
716.000000	16.933030  
716.500000	16.847651  
717.000000	16.295757  
717.500000	15.711287  
718.000000	15.127893  
718.500000	14.659310  
719.000000	14.104318  
719.500000	13.836886  
720.000000	13.743893  
720.500000	13.350401  
721.000000	12.805265  
721.500000	12.429401  
722.000000	12.679992  
722.500000	12.841803  
723.000000	12.561098  
723.500000	11.989348  
724.000000	11.909553  
724.500000	12.090545  
725.000000	12.015878  
725.500000	11.463689  
726.000000	10.799840  
726.500000	10.090886  
727.000000	9.534606   
727.500000	9.057143   
728.000000	8.962295   
728.500000	8.855136   
729.000000	8.788371   
729.500000	8.670492   
730.000000	8.723204   
730.500000	8.565818   
731.000000	8.436840   
731.500000	8.394174   
732.000000	8.673265   
732.500000	8.666083   
733.000000	8.343893   
733.500000	7.820462   
734.000000	7.674121   
734.500000	7.681765   
735.000000	7.703606   
735.500000	7.628136   
736.000000	7.320143   
736.500000	7.056219   
737.000000	6.746136   
737.500000	6.731606   
738.000000	6.633871   
738.500000	6.584053   
739.000000	6.456886   
739.500000	6.374984   
740.000000	6.188204   
740.500000	6.135689   
741.000000	6.050651   
741.500000	5.806818   
742.000000	5.691659   
742.500000	5.864545   
743.000000	5.912022   
743.500000	5.564787   
744.000000	5.083234   
744.500000	5.293098   
745.000000	5.877863   
745.500000	6.188568   
746.000000	5.927954   
746.500000	5.451522   
747.000000	5.056181   
747.500000	4.789787   
748.000000	4.567454   
748.500000	4.352015   
749.000000	4.338719   
749.500000	4.470083   
750.000000	4.706242   
750.500000	4.826401   
751.000000	4.758954   
751.500000	4.629446   
752.000000	4.551992   
752.500000	4.583075   
753.000000	4.643393   
753.500000	4.763196   
754.000000	4.805893   
754.500000	4.610378   
755.000000	4.323446   
755.500000	4.173621   
756.000000	4.241378   
756.500000	4.111378   
757.000000	3.872083   
757.500000	3.643886   
758.000000	3.621393   
758.500000	3.717568   
759.000000	3.978174   
759.500000	4.124068   
760.000000	3.872439   
760.500000	3.694553   
761.000000	3.794848   
761.500000	4.085477   
762.000000	4.068613   
762.500000	3.942848   
763.000000	3.743742   
763.500000	3.487219   
764.000000	3.233378   
764.500000	3.170477   
765.000000	3.396765   
765.500000	3.524666   
766.000000	3.613545   
766.500000	3.524871   
767.000000	3.417840   
767.500000	3.169803   
768.000000	3.035181   
768.500000	3.164545   
769.000000	3.483893   
769.500000	3.636795   
770.000000	3.418515   
770.500000	3.184272   
771.000000	3.132196   
771.500000	3.186219   
772.000000	3.052507   
772.500000	2.868787   
773.000000	2.832780   
773.500000	2.883060   
774.000000	3.142840   
774.500000	3.065007   
775.000000	2.859340   
775.500000	2.598969   
776.000000	2.821954   
776.500000	3.119727   
777.000000	3.261992   
777.500000	3.028477   
778.000000	2.859356   
778.500000	2.843348   
779.000000	2.854772   
779.500000	2.830340   
780.000000	2.787113   
780.500000	2.872492   
781.000000	2.911613   
781.500000	2.852371   
782.000000	2.776257   
782.500000	2.877712   
783.000000	2.914924   
783.500000	2.900484   
784.000000	2.878992   
784.500000	2.968969   
785.000000	2.952007   
785.500000	2.810833   
786.000000	2.678659   
786.500000	2.750886   
787.000000	2.753674   
787.500000	2.599015   
788.000000	2.316750   
788.500000	2.342598   
789.000000	2.348075   
789.500000	2.411696   
790.000000	2.228159   
790.500000	2.285984   
791.000000	2.350159   
791.500000	2.454916   
792.000000	2.486363   
792.500000	2.555409   
793.000000	2.547719   
793.500000	2.400742   
794.000000	2.233393   
794.500000	1.956803   
795.000000	1.919045   
795.500000	2.055295   
796.000000	2.373772   
796.500000	2.489553   
797.000000	2.448863   
797.500000	2.219848   
798.000000	2.038121   
798.500000	1.997643   
799.000000	2.248787   
799.500000	2.437068   
800.000000	2.286780   
800.500000	2.102037   
801.000000	2.100431   
801.500000	2.129212   
802.000000	1.860787   
802.500000	1.661068   
803.000000	1.749113   
803.500000	2.112530   
804.000000	2.228560   
804.500000	1.998159   
805.000000	1.664583   
805.500000	1.518522   
806.000000	1.595530   
806.500000	1.855143   
807.000000	2.090651   
807.500000	2.233901   
808.000000	2.044931   
808.500000	1.888916   
809.000000	1.890136   
809.500000	2.030386   
810.000000	1.780454   
810.500000	1.431628   
811.000000	1.163575   
811.500000	1.268310   
812.000000	1.412446   
812.500000	1.462772   
813.000000	1.285742   
813.500000	1.187121   
814.000000	1.156000   
814.500000	1.269515   
815.000000	1.384545   
815.500000	1.538143   
816.000000	1.672696   
816.500000	1.683106   
817.000000	1.619166   
817.500000	1.507484   
818.000000	1.462000   
818.500000	1.447734   
819.000000	1.424931   
819.500000	1.412598   
820.000000	1.482454   
820.500000	1.754681   
821.000000	2.000901   
821.500000	2.168537   
822.000000	2.208750   
822.500000	2.259712   
823.000000	2.235030   
823.500000	2.248659   
824.000000	2.315674   
824.500000	2.294068   
825.000000	2.245287   
825.500000	2.180553   
826.000000	2.307553   
826.500000	2.407431   
827.000000	2.421553   
827.500000	2.218106   
828.000000	2.176030   
828.500000	2.227204   
829.000000	2.169727   
829.500000	1.785348   
830.000000	1.314666   
830.500000	1.115825   
831.000000	1.182643   
831.500000	1.320992   
832.000000	1.261340   
832.500000	1.047151   
833.000000	0.820939   
833.500000	0.812492   
834.000000	0.916765   
834.500000	0.996250   
835.000000	1.021871   
835.500000	1.036643   
836.000000	1.030984   
836.500000	0.935015   
837.000000	0.897568   
837.500000	0.790606   
838.000000	0.675969   
838.500000	0.616090   
839.000000	0.669666   
839.500000	0.699030   
840.000000	0.701333   
840.500000	0.748522   
841.000000	0.864984   
841.500000	0.942628   
842.000000	0.935946   
842.500000	0.850583   
843.000000	0.799969   
843.500000	0.677871   
844.000000	0.612840   
844.500000	0.344166   
845.000000	0.113356   
845.500000	-0.036416  
846.000000	0.119007   
846.500000	0.359212   
847.000000	0.618931   
847.500000	0.692856   
848.000000	0.546333   
848.500000	0.346045   
849.000000	0.270856   
849.500000	0.436613   
850.000000	0.431378   
850.500000	0.395083   
851.000000	0.310689   
851.500000	0.284325   
852.000000	0.134181   
852.500000	-0.016946  
853.000000	-0.055469  
853.500000	0.036174   
854.000000	0.186007   
854.500000	0.210159   
855.000000	0.180803   
855.500000	0.052136   
856.000000	0.026378   
856.500000	0.004666   
857.000000	0.014992   
857.500000	0.006272   
858.000000	0.036537   
858.500000	0.020931   
859.000000	0.016136   
859.500000	0.019136   
860.000000	0.071462   
860.500000	0.107704   
861.000000	0.124765   
861.500000	0.154333   
862.000000	0.148606   
862.500000	0.052287   
863.000000	-0.094765  
863.500000	-0.177818  
864.000000	-0.117909  
864.500000	-0.026515  
865.000000	0.009378   
865.500000	-0.016772  
866.000000	0.130863   
866.500000	0.281363   
867.000000	0.368242   
867.500000	0.273954   
868.000000	0.194386   
868.500000	0.129689   
869.000000	0.082128   
869.500000	0.002378   
870.000000	0.025901   
870.500000	0.012242   
871.000000	-0.071727  
871.500000	-0.135287  
872.000000	-0.072818  
872.500000	-0.084856  
873.000000	-0.149106  
873.500000	-0.243818  
874.000000	-0.131590  
874.500000	-0.002310  
875.000000	0.044439   
875.500000	-0.050068  
876.000000	-0.105863  
876.500000	-0.135333  
877.000000	-0.154984  
877.500000	-0.168318  
878.000000	-0.080106  
878.500000	0.110924   
879.000000	0.226946   
879.500000	0.180893   
880.000000	0.019704   
880.500000	-0.118893  
881.000000	-0.190431  
881.500000	-0.192969  
882.000000	-0.198257  
882.500000	-0.057803  
883.000000	0.155727   
883.500000	0.278598   
884.000000	0.125568   
884.500000	-0.134166  
885.000000	-0.255507  
885.500000	-0.143393  
886.000000	0.017992   
886.500000	0.145833   
887.000000	0.115621   
887.500000	0.034045   
888.000000	-0.008909  
888.500000	0.059333   
889.000000	0.072568   
889.500000	0.032295   
890.000000	-0.072136  
890.500000	-0.019742  
891.000000	0.090234   
891.500000	0.118553   
892.000000	0.003280   
892.500000	-0.116075  
893.000000	-0.128825  
893.500000	-0.112977  
894.000000	-0.132772  
894.500000	-0.172992  
895.000000	-0.124606  
895.500000	-0.104000  
896.000000	-0.045954  
896.500000	-0.116068  
897.000000	-0.167810  
897.500000	-0.211871  
898.000000	-0.179886  
898.500000	-0.210189  
899.000000	-0.228537  
899.500000	-0.187280  
900.000000	-0.024568  
900.500000	0.166000   

