PE FL                   SPECTRUM    ASCII       PEDS        1.60        
  -1
S00BCF~1.SP
24/04/11
16:58:56.00
24/04/11
16:58:56.00
Jan

896.500000
1









LS55
405.00
5.00
5.00
SCAN
1
20
100
100
0
400
0
1
0
1
5
ON
736 405 
1 0 0
#HDR
-1
-1
#GR
NM

0.00002384185791015625
0.0
450.000000
0.500000
894
8
326.905090
-0.208179
#DATA
450.000000	0.270000   
450.500000	0.057059   
451.000000	-0.103946  
451.500000	-0.188599  
452.000000	-0.180083  
452.500000	-0.134055  
453.000000	-0.091692  
453.500000	-0.068309  
454.000000	-0.045994  
454.500000	-0.051272  
455.000000	-0.069038  
455.500000	-0.078352  
456.000000	-0.082682  
456.500000	-0.079944  
457.000000	-0.048697  
457.500000	0.036471   
458.000000	0.157909   
458.500000	0.279619   
459.000000	0.382198   
459.500000	0.446684   
460.000000	0.427769   
460.500000	0.379038   
461.000000	0.275380   
461.500000	0.159228   
462.000000	0.051730   
462.500000	-0.038517  
463.000000	-0.063877  
463.500000	-0.081103  
464.000000	-0.042686  
464.500000	-0.038508  
465.000000	-0.033775  
465.500000	-0.017426  
466.000000	-0.033187  
466.500000	-0.035090  
467.000000	-0.025354  
467.500000	0.056443   
468.000000	0.109382   
468.500000	0.140536   
469.000000	0.172851   
469.500000	0.177100   
470.000000	0.157912   
470.500000	0.155751   
471.000000	0.169730   
471.500000	0.180990   
472.000000	0.158467   
472.500000	0.099326   
473.000000	0.038141   
473.500000	-0.045666  
474.000000	-0.083178  
474.500000	-0.090406  
475.000000	-0.056508  
475.500000	-0.001615  
476.000000	0.039961   
476.500000	0.033196   
477.000000	-0.039274  
477.500000	-0.080244  
478.000000	-0.073634  
478.500000	-0.029545  
479.000000	0.005970   
479.500000	0.067146   
480.000000	0.090261   
480.500000	0.062857   
481.000000	0.011595   
481.500000	0.020530   
482.000000	0.086558   
482.500000	0.144948   
483.000000	0.259547   
483.500000	0.331812   
484.000000	0.346402   
484.500000	0.305346   
485.000000	0.255411   
485.500000	0.234474   
486.000000	0.202916   
486.500000	0.251198   
487.000000	0.260803   
487.500000	0.217981   
488.000000	0.163912   
488.500000	0.131194   
489.000000	0.075333   
489.500000	0.014432   
490.000000	0.014040   
490.500000	0.042424   
491.000000	0.057820   
491.500000	0.092877   
492.000000	0.175641   
492.500000	0.235241   
493.000000	0.279181   
493.500000	0.291608   
494.000000	0.270046   
494.500000	0.231910   
495.000000	0.178669   
495.500000	0.188719   
496.000000	0.223873   
496.500000	0.329725   
497.000000	0.439610   
497.500000	0.525855   
498.000000	0.612762   
498.500000	0.642538   
499.000000	0.631920   
499.500000	0.561141   
500.000000	0.467009   
500.500000	0.385552   
501.000000	0.311920   
501.500000	0.289250   
502.000000	0.301803   
502.500000	0.368512   
503.000000	0.458100   
503.500000	0.558235   
504.000000	0.675552   
504.500000	0.788907   
505.000000	0.877204   
505.500000	0.921532   
506.000000	0.958068   
506.500000	0.974176   
507.000000	0.961391   
507.500000	0.953330   
508.000000	0.978237   
508.500000	1.053977   
509.000000	1.117332   
509.500000	1.195795   
510.000000	1.304732   
510.500000	1.404547   
511.000000	1.511000   
511.500000	1.611890   
512.000000	1.734022   
512.500000	1.791274   
513.000000	1.842280   
513.500000	1.872580   
514.000000	1.856808   
514.500000	1.868326   
515.000000	1.901176   
515.500000	1.996016   
516.000000	2.102556   
516.500000	2.301450   
517.000000	2.494044   
517.500000	2.618738   
518.000000	2.682189   
518.500000	2.663771   
519.000000	2.651703   
519.500000	2.557836   
520.000000	2.503096   
520.500000	2.464948   
521.000000	2.468287   
521.500000	2.502573   
522.000000	2.551985   
522.500000	2.658204   
523.000000	2.784506   
523.500000	2.901384   
524.000000	3.008842   
524.500000	3.097552   
525.000000	3.178430   
525.500000	3.260313   
526.000000	3.358972   
526.500000	3.522903   
527.000000	3.717087   
527.500000	3.954931   
528.000000	4.179868   
528.500000	4.424196   
529.000000	4.666636   
529.500000	4.891692   
530.000000	5.134968   
530.500000	5.330595   
531.000000	5.502285   
531.500000	5.608168   
532.000000	5.749365   
532.500000	5.889469   
533.000000	6.002972   
533.500000	6.184027   
534.000000	6.388936   
534.500000	6.596302   
535.000000	6.885554   
535.500000	7.210131   
536.000000	7.578690   
536.500000	7.975701   
537.000000	8.404985   
537.500000	8.868760   
538.000000	9.269782   
538.500000	9.748987   
539.000000	10.180419  
539.500000	10.563910  
540.000000	10.911361  
540.500000	11.180899  
541.000000	11.406168  
541.500000	11.501128  
542.000000	11.645269  
542.500000	11.756196  
543.000000	11.853625  
543.500000	11.922153  
544.000000	11.870810  
544.500000	11.800486  
545.000000	11.699562  
545.500000	11.622226  
546.000000	11.522625  
546.500000	11.503313  
547.000000	11.469510  
547.500000	11.308005  
548.000000	11.074638  
548.500000	10.765836  
549.000000	10.438465  
549.500000	10.084166  
550.000000	9.873565   
550.500000	9.871825   
551.000000	9.960688   
551.500000	10.137224  
552.000000	10.396781  
552.500000	10.605749  
553.000000	10.726257  
553.500000	10.731760  
554.000000	10.682968  
554.500000	10.586534  
555.000000	10.507740  
555.500000	10.531649  
556.000000	10.667766  
556.500000	10.888547  
557.000000	11.094948  
557.500000	11.286063  
558.000000	11.352903  
558.500000	11.398890  
559.000000	11.481905  
559.500000	11.634261  
560.000000	11.951844  
560.500000	12.468038  
561.000000	13.132573  
561.500000	13.777003  
562.000000	14.455849  
562.500000	15.042901  
563.000000	15.605415  
563.500000	16.142742  
564.000000	16.734500  
564.500000	17.412007  
565.000000	18.059276  
565.500000	18.734601  
566.000000	19.337313  
566.500000	19.965421  
567.000000	20.530189  
567.500000	20.983820  
568.000000	21.413411  
568.500000	21.715693  
569.000000	22.000339  
569.500000	22.188183  
570.000000	22.535218  
570.500000	23.125410  
571.000000	23.785543  
571.500000	24.577890  
572.000000	25.346384  
572.500000	26.024176  
573.000000	26.519554  
573.500000	27.071586  
574.000000	27.776178  
574.500000	28.611749  
575.000000	29.551847  
575.500000	30.501035  
576.000000	31.399679  
576.500000	32.089000  
577.000000	32.848513  
577.500000	33.624369  
578.000000	34.463230  
578.500000	35.375762  
579.000000	36.225690  
579.500000	36.939359  
580.000000	37.405048  
580.500000	37.980736  
581.000000	38.684948  
581.500000	39.493037  
582.000000	40.458786  
582.500000	41.670053  
583.000000	42.866037  
583.500000	43.921244  
584.000000	44.922487  
584.500000	46.006864  
585.000000	46.970150  
585.500000	47.856228  
586.000000	48.772871  
586.500000	49.597591  
587.000000	50.424636  
587.500000	51.371423  
588.000000	52.651085  
588.500000	53.919769  
589.000000	55.380736  
589.500000	56.906602  
590.000000	58.330092  
590.500000	59.677204  
591.000000	60.942267  
591.500000	62.483077  
592.000000	63.939560  
592.500000	65.809510  
593.000000	67.773048  
593.500000	69.535274  
594.000000	71.234402  
594.500000	72.740057  
595.000000	74.286615  
595.500000	75.748560  
596.000000	77.567419  
596.500000	79.313460  
597.000000	80.954076  
597.500000	82.669575  
598.000000	84.319063  
598.500000	85.898675  
599.000000	87.199320  
599.500000	88.901827  
600.000000	90.738923  
600.500000	92.628936  
601.000000	94.932747  
601.500000	97.689302  
602.000000	100.740103 
602.500000	103.563886 
603.000000	106.505170 
603.500000	109.337575 
604.000000	111.880677 
604.500000	114.259489 
605.000000	116.723135 
605.500000	119.248259 
606.000000	121.581936 
606.500000	123.801313 
607.000000	126.001025 
607.500000	128.164647 
608.000000	130.484630 
608.500000	133.128191 
609.000000	135.820907 
609.500000	138.720354 
610.000000	141.852526 
610.500000	144.859719 
611.000000	147.832844 
611.500000	150.840888 
612.000000	153.985803 
612.500000	156.986536 
613.000000	160.138884 
613.500000	163.406918 
614.000000	166.706506 
614.500000	169.898677 
615.000000	173.290569 
615.500000	176.900222 
616.000000	180.452879 
616.500000	184.482914 
617.000000	188.580549 
617.500000	192.449690 
618.000000	196.023747 
618.500000	199.386764 
619.000000	202.407487 
619.500000	205.065671 
620.000000	208.116174 
620.500000	211.393484 
621.000000	214.996914 
621.500000	218.862413 
622.000000	222.928961 
622.500000	227.132307 
623.000000	231.074426 
623.500000	234.830955 
624.000000	238.316287 
624.500000	241.550790 
625.000000	244.706346 
625.500000	247.903608 
626.000000	251.307942 
626.500000	255.035484 
627.000000	258.819426 
627.500000	262.507914 
628.000000	265.891504 
628.500000	268.989799 
629.000000	271.698922 
629.500000	274.290782 
630.000000	277.266122 
630.500000	280.128736 
631.000000	283.021435 
631.500000	285.893387 
632.000000	288.918871 
632.500000	291.876673 
633.000000	294.894267 
633.500000	298.360367 
634.000000	301.455914 
634.500000	303.889621 
635.000000	305.840011 
635.500000	307.765942 
636.000000	309.428263 
636.500000	310.899259 
637.000000	312.894610 
637.500000	314.695883 
638.000000	315.887756 
638.500000	316.691591 
639.000000	317.530363 
639.500000	318.311296 
640.000000	319.039109 
640.500000	320.276211 
641.000000	322.089525 
641.500000	323.881910 
642.000000	325.200220 
642.500000	326.175589 
643.000000	326.905090 
643.500000	326.726024 
644.000000	325.615423 
644.500000	324.358035 
645.000000	323.107606 
645.500000	321.756910 
646.000000	320.593643 
646.500000	320.163031 
647.000000	319.917150 
647.500000	319.182712 
648.000000	318.451447 
648.500000	317.617090 
649.000000	316.345899 
649.500000	314.555803 
650.000000	312.897361 
650.500000	311.313003 
651.000000	309.417447 
651.500000	307.300808 
652.000000	305.089283 
652.500000	302.483662 
653.000000	299.162578 
653.500000	295.758805 
654.000000	292.784693 
654.500000	289.868296 
655.000000	286.823059 
655.500000	283.971977 
656.000000	281.173402 
656.500000	277.983204 
657.000000	274.594133 
657.500000	271.565473 
658.000000	268.642345 
658.500000	265.733825 
659.000000	262.298033 
659.500000	258.569354 
660.000000	254.368602 
660.500000	250.003356 
661.000000	245.813988 
661.500000	241.964651 
662.000000	238.668226 
662.500000	235.232415 
663.000000	231.099085 
663.500000	226.485365 
664.000000	221.438807 
664.500000	216.303413 
665.000000	211.264888 
665.500000	206.606461 
666.000000	202.453272 
666.500000	198.297050 
667.000000	194.363048 
667.500000	190.149367 
668.000000	185.873226 
668.500000	181.599294 
669.000000	176.723202 
669.500000	172.007628 
670.000000	167.234157 
670.500000	162.837189 
671.000000	158.361686 
671.500000	154.344181 
672.000000	150.720179 
672.500000	146.590601 
673.000000	142.480532 
673.500000	138.408311 
674.000000	134.587749 
674.500000	130.979163 
675.000000	127.781348 
675.500000	125.209217 
676.000000	122.290519 
676.500000	119.198517 
677.000000	116.042810 
677.500000	112.633645 
678.000000	109.182580 
678.500000	105.857680 
679.000000	102.937256 
679.500000	100.154680 
680.000000	97.371870  
680.500000	94.798328  
681.000000	92.149608  
681.500000	89.527617  
682.000000	86.929309  
682.500000	84.254860  
683.000000	81.783569  
683.500000	79.229474  
684.000000	76.883037  
684.500000	74.783669  
685.000000	72.670469  
685.500000	70.610452  
686.000000	68.371730  
686.500000	66.218437  
687.000000	63.975608  
687.500000	61.752727  
688.000000	59.930235  
688.500000	58.133122  
689.000000	56.575116  
689.500000	55.164335  
690.000000	53.848795  
690.500000	52.657506  
691.000000	51.401508  
691.500000	50.298510  
692.000000	48.917664  
692.500000	47.393682  
693.000000	45.909359  
693.500000	44.317669  
694.000000	42.935087  
694.500000	41.639313  
695.000000	40.529389  
695.500000	39.377985  
696.000000	38.259951  
696.500000	37.154985  
697.000000	35.938894  
697.500000	34.947454  
698.000000	34.042823  
698.500000	33.124601  
699.000000	32.382207  
699.500000	31.819244  
700.000000	31.213107  
700.500000	30.425307  
701.000000	29.703684  
701.500000	28.992176  
702.000000	28.101781  
702.500000	27.277990  
703.000000	26.685181  
703.500000	26.310936  
704.000000	25.811820  
704.500000	25.217743  
705.000000	24.657775  
705.500000	23.887454  
706.000000	23.061604  
706.500000	22.265975  
707.000000	21.790910  
707.500000	21.427256  
708.000000	21.108450  
708.500000	20.860808  
709.000000	20.573500  
709.500000	20.136894  
710.000000	19.560489  
710.500000	19.043628  
711.000000	18.499903  
711.500000	17.988022  
712.000000	17.652224  
712.500000	17.396790  
713.000000	17.157549  
713.500000	16.873586  
714.000000	16.575890  
714.500000	16.170272  
715.000000	15.702940  
715.500000	15.307961  
716.000000	14.976766  
716.500000	14.657074  
717.000000	14.311992  
717.500000	13.928027  
718.000000	13.597862  
718.500000	13.316146  
719.000000	13.112884  
719.500000	13.018493  
720.000000	12.914157  
720.500000	12.721367  
721.000000	12.423643  
721.500000	12.107849  
722.000000	11.844350  
722.500000	11.692083  
723.000000	11.650690  
723.500000	11.581174  
724.000000	11.418844  
724.500000	11.095046  
725.000000	10.673066  
725.500000	10.297827  
726.000000	10.107443  
726.500000	9.975638   
727.000000	9.923860   
727.500000	9.971061   
728.000000	9.950012   
728.500000	9.807608   
729.000000	9.695721   
729.500000	9.613022   
730.000000	9.382975   
730.500000	9.153636   
731.000000	9.045738   
731.500000	8.922326   
732.000000	8.709261   
732.500000	8.667730   
733.000000	8.666209   
733.500000	8.543576   
734.000000	8.370285   
734.500000	8.226226   
735.000000	8.035708   
735.500000	7.786818   
736.000000	7.685040   
736.500000	7.654102   
737.000000	7.633272   
737.500000	7.616371   
738.000000	7.583658   
738.500000	7.527142   
739.000000	7.348998   
739.500000	7.152896   
740.000000	6.972727   
740.500000	6.875213   
741.000000	6.832124   
741.500000	6.803315   
742.000000	6.878187   
742.500000	6.903191   
743.000000	6.851471   
743.500000	6.749413   
744.000000	6.548827   
744.500000	6.285994   
745.000000	5.955795   
745.500000	5.707834   
746.000000	5.555630   
746.500000	5.458135   
747.000000	5.505773   
747.500000	5.601595   
748.000000	5.710222   
748.500000	5.806215   
749.000000	5.847831   
749.500000	5.856662   
750.000000	5.750294   
750.500000	5.603267   
751.000000	5.427847   
751.500000	5.289146   
752.000000	5.263304   
752.500000	5.300977   
753.000000	5.479948   
753.500000	5.688890   
754.000000	5.822369   
754.500000	5.813029   
755.000000	5.619389   
755.500000	5.315799   
756.000000	4.916354   
756.500000	4.577274   
757.000000	4.288935   
757.500000	4.138309   
758.000000	4.128076   
758.500000	4.170549   
759.000000	4.282480   
759.500000	4.375103   
760.000000	4.511556   
760.500000	4.579098   
761.000000	4.615341   
761.500000	4.667452   
762.000000	4.651877   
762.500000	4.600270   
763.000000	4.517666   
763.500000	4.462547   
764.000000	4.408055   
764.500000	4.360116   
765.000000	4.340326   
765.500000	4.323144   
766.000000	4.325619   
766.500000	4.332465   
767.000000	4.307354   
767.500000	4.292766   
768.000000	4.233179   
768.500000	4.107884   
769.000000	3.951508   
769.500000	3.807068   
770.000000	3.703395   
770.500000	3.602977   
771.000000	3.621128   
771.500000	3.680643   
772.000000	3.739786   
772.500000	3.801089   
773.000000	3.848421   
773.500000	3.828816   
774.000000	3.733543   
774.500000	3.676862   
775.000000	3.614836   
775.500000	3.575200   
776.000000	3.587261   
776.500000	3.662690   
777.000000	3.679996   
777.500000	3.641220   
778.000000	3.576617   
778.500000	3.426988   
779.000000	3.271239   
779.500000	3.156649   
780.000000	3.160584   
780.500000	3.176155   
781.000000	3.240914   
781.500000	3.316769   
782.000000	3.321139   
782.500000	3.283105   
783.000000	3.185786   
783.500000	3.105899   
784.000000	3.008645   
784.500000	2.922790   
785.000000	2.897005   
785.500000	2.864862   
786.000000	2.878243   
786.500000	2.879102   
787.000000	2.908523   
787.500000	2.943981   
788.000000	2.936311   
788.500000	2.950688   
789.000000	2.902126   
789.500000	2.870736   
790.000000	2.817495   
790.500000	2.796259   
791.000000	2.818137   
791.500000	2.815224   
792.000000	2.850705   
792.500000	2.831478   
793.000000	2.804636   
793.500000	2.737721   
794.000000	2.691525   
794.500000	2.683302   
795.000000	2.688614   
795.500000	2.749003   
796.000000	2.813068   
796.500000	2.840586   
797.000000	2.808686   
797.500000	2.751055   
798.000000	2.676022   
798.500000	2.600914   
799.000000	2.548233   
799.500000	2.524567   
800.000000	2.528623   
800.500000	2.540857   
801.000000	2.549196   
801.500000	2.550385   
802.000000	2.532471   
802.500000	2.451293   
803.000000	2.331463   
803.500000	2.159528   
804.000000	2.016602   
804.500000	1.892087   
805.000000	1.868666   
805.500000	1.978400   
806.000000	2.143293   
806.500000	2.328666   
807.000000	2.435398   
807.500000	2.477382   
808.000000	2.401257   
808.500000	2.249059   
809.000000	2.123076   
809.500000	1.999283   
810.000000	1.954838   
810.500000	1.906155   
811.000000	1.928218   
811.500000	1.980261   
812.000000	2.019076   
812.500000	2.053280   
813.000000	2.026504   
813.500000	1.945339   
814.000000	1.782426   
814.500000	1.628168   
815.000000	1.494230   
815.500000	1.410591   
816.000000	1.401007   
816.500000	1.426161   
817.000000	1.483944   
817.500000	1.523153   
818.000000	1.594068   
818.500000	1.664831   
819.000000	1.802530   
819.500000	1.963410   
820.000000	2.109658   
820.500000	2.227222   
821.000000	2.310833   
821.500000	2.339972   
822.000000	2.303491   
822.500000	2.336756   
823.000000	2.338282   
823.500000	2.329319   
824.000000	2.328066   
824.500000	2.386120   
825.000000	2.373126   
825.500000	2.280111   
826.000000	2.237092   
826.500000	2.169066   
827.000000	2.087471   
827.500000	2.006393   
828.000000	2.036953   
828.500000	2.009304   
829.000000	1.940606   
829.500000	1.886658   
830.000000	1.832602   
830.500000	1.742506   
831.000000	1.624254   
831.500000	1.577406   
832.000000	1.501189   
832.500000	1.444027   
833.000000	1.354573   
833.500000	1.294519   
834.000000	1.226551   
834.500000	1.167428   
835.000000	1.135606   
835.500000	1.086645   
836.000000	1.065805   
836.500000	1.015478   
837.000000	0.970525   
837.500000	0.921074   
838.000000	0.902057   
838.500000	0.902974   
839.000000	0.928628   
839.500000	0.983743   
840.000000	1.026029   
840.500000	1.023851   
841.000000	0.959450   
841.500000	0.867096   
842.000000	0.769801   
842.500000	0.734764   
843.000000	0.717135   
843.500000	0.740864   
844.000000	0.753875   
844.500000	0.700491   
845.000000	0.604463   
845.500000	0.506584   
846.000000	0.457456   
846.500000	0.404144   
847.000000	0.424309   
847.500000	0.483732   
848.000000	0.522955   
848.500000	0.517972   
849.000000	0.510460   
849.500000	0.515226   
850.000000	0.472435   
850.500000	0.435365   
851.000000	0.400209   
851.500000	0.356040   
852.000000	0.270497   
852.500000	0.180508   
853.000000	0.098677   
853.500000	0.005376   
854.000000	-0.050660  
854.500000	-0.078272  
855.000000	-0.055294  
855.500000	-0.018402  
856.000000	0.029168   
856.500000	0.071181   
857.000000	0.062578   
857.500000	0.055287   
858.000000	0.050526   
858.500000	0.058929   
859.000000	0.088307   
859.500000	0.120389   
860.000000	0.147354   
860.500000	0.118586   
861.000000	0.083252   
861.500000	0.014261   
862.000000	-0.076090  
862.500000	-0.109666  
863.000000	-0.109090  
863.500000	-0.072320  
864.000000	-0.028369  
864.500000	0.068875   
865.000000	0.163807   
865.500000	0.196875   
866.000000	0.233656   
866.500000	0.257525   
867.000000	0.241771   
867.500000	0.170025   
868.000000	0.102666   
868.500000	0.042630   
869.000000	-0.045102  
869.500000	-0.133031  
870.000000	-0.187387  
870.500000	-0.198185  
871.000000	-0.208179  
871.500000	-0.207044  
872.000000	-0.168532  
872.500000	-0.117241  
873.000000	-0.065233  
873.500000	-0.030526  
874.000000	-0.003519  
874.500000	-0.006235  
875.000000	-0.055116  
875.500000	-0.111430  
876.000000	-0.164345  
876.500000	-0.180610  
877.000000	-0.194640  
877.500000	-0.184697  
878.000000	-0.160037  
878.500000	-0.142666  
879.000000	-0.130884  
879.500000	-0.115602  
880.000000	-0.076890  
880.500000	-0.027031  
881.000000	0.000263   
881.500000	0.005972   
882.000000	-0.008226  
882.500000	-0.059506  
883.000000	-0.108790  
883.500000	-0.151113  
884.000000	-0.146115  
884.500000	-0.117730  
885.000000	-0.088430  
885.500000	-0.047293  
886.000000	-0.017799  
886.500000	-0.008102  
887.000000	-0.047987  
887.500000	-0.065873  
888.000000	-0.068187  
888.500000	-0.081372  
889.000000	-0.083233  
889.500000	-0.071500  
890.000000	-0.063031  
890.500000	-0.062161  
891.000000	-0.081790  
891.500000	-0.080920  
892.000000	-0.077632  
892.500000	-0.085345  
893.000000	-0.083437  
893.500000	-0.089771  
894.000000	-0.075515  
894.500000	-0.093513  
895.000000	-0.095925  
895.500000	-0.074053  
896.000000	-0.050319  
896.500000	-0.025703  

