PE FL                   SPECTRUM    ASCII       PEDS        1.60        
  -1
S00BCB~1.SP
24/04/11
16:16:09.00
24/04/11
16:16:09.00
Jan

896.500000
1









LS55
405.00
5.00
5.00
SCAN
1
20
100
100
0
400
0
1
0
1
5
ON
736 405 
1 0 0
#HDR
-1
-1
#GR
NM

0.00002384185791015625
0.0
450.000000
0.500000
894
8
380.102884
-0.201615
#DATA
450.000000	0.001000   
450.500000	0.171756   
451.000000	0.269595   
451.500000	0.277380   
452.000000	0.174641   
452.500000	0.070131   
453.000000	-0.033007  
453.500000	-0.092361  
454.000000	-0.054241  
454.500000	0.043695   
455.000000	0.139962   
455.500000	0.215300   
456.000000	0.286283   
456.500000	0.324213   
457.000000	0.292918   
457.500000	0.232831   
458.000000	0.174411   
458.500000	0.125484   
459.000000	0.118270   
459.500000	0.141274   
460.000000	0.189307   
460.500000	0.246692   
461.000000	0.263352   
461.500000	0.246029   
462.000000	0.216079   
462.500000	0.194922   
463.000000	0.185684   
463.500000	0.214961   
464.000000	0.265410   
464.500000	0.356458   
465.000000	0.371096   
465.500000	0.338584   
466.000000	0.238024   
466.500000	0.130534   
467.000000	0.047558   
467.500000	-0.018183  
468.000000	0.013294   
468.500000	0.075415   
469.000000	0.152313   
469.500000	0.183339   
470.000000	0.169333   
470.500000	0.127432   
471.000000	0.058862   
471.500000	0.049430   
472.000000	0.067901   
472.500000	0.106220   
473.000000	0.147126   
473.500000	0.205957   
474.000000	0.241243   
474.500000	0.255619   
475.000000	0.265745   
475.500000	0.271716   
476.000000	0.258076   
476.500000	0.249615   
477.000000	0.229461   
477.500000	0.213456   
478.000000	0.181103   
478.500000	0.166547   
479.000000	0.125829   
479.500000	0.063942   
480.000000	0.041228   
480.500000	0.007530   
481.000000	-0.039558  
481.500000	-0.064269  
482.000000	-0.023217  
482.500000	0.017569   
483.000000	0.024736   
483.500000	0.093762   
484.000000	0.226781   
484.500000	0.293953   
485.000000	0.334317   
485.500000	0.387810   
486.000000	0.387181   
486.500000	0.303085   
487.000000	0.181721   
487.500000	0.156257   
488.000000	0.082955   
488.500000	0.042139   
489.000000	0.072092   
489.500000	0.133860   
490.000000	0.192296   
490.500000	0.221085   
491.000000	0.345445   
491.500000	0.425415   
492.000000	0.465372   
492.500000	0.523460   
493.000000	0.582434   
493.500000	0.589048   
494.000000	0.488269   
494.500000	0.425248   
495.000000	0.314721   
495.500000	0.178589   
496.000000	0.092074   
496.500000	0.101988   
497.000000	0.205538   
497.500000	0.288398   
498.000000	0.437888   
498.500000	0.548862   
499.000000	0.586901   
499.500000	0.585517   
500.000000	0.561988   
500.500000	0.565803   
501.000000	0.537348   
501.500000	0.558452   
502.000000	0.596341   
502.500000	0.631538   
503.000000	0.674602   
503.500000	0.706061   
504.000000	0.764443   
504.500000	0.793777   
505.000000	0.823959   
505.500000	0.852688   
506.000000	0.880213   
506.500000	0.890109   
507.000000	0.913814   
507.500000	0.964246   
508.000000	1.045176   
508.500000	1.106493   
509.000000	1.147454   
509.500000	1.191003   
510.000000	1.210569   
510.500000	1.188569   
511.000000	1.190174   
511.500000	1.276000   
512.000000	1.385109   
512.500000	1.520523   
513.000000	1.678519   
513.500000	1.846341   
514.000000	1.951005   
514.500000	2.033653   
515.000000	2.160320   
515.500000	2.251259   
516.000000	2.328712   
516.500000	2.393061   
517.000000	2.457504   
517.500000	2.457081   
518.000000	2.440560   
518.500000	2.454235   
519.000000	2.471283   
519.500000	2.504953   
520.000000	2.582345   
520.500000	2.660736   
521.000000	2.729510   
521.500000	2.779129   
522.000000	2.847371   
522.500000	2.889938   
523.000000	2.891168   
523.500000	2.897165   
524.000000	2.906779   
524.500000	2.888159   
525.000000	2.912519   
525.500000	3.032111   
526.000000	3.203155   
526.500000	3.374042   
527.000000	3.648502   
527.500000	3.982352   
528.000000	4.270972   
528.500000	4.513862   
529.000000	4.771495   
529.500000	5.044085   
530.000000	5.161465   
530.500000	5.275834   
531.000000	5.378897   
531.500000	5.477801   
532.000000	5.593795   
532.500000	5.718000   
533.000000	5.949846   
533.500000	6.096868   
534.000000	6.300679   
534.500000	6.429951   
535.000000	6.648925   
535.500000	6.973439   
536.000000	7.272174   
536.500000	7.566053   
537.000000	7.894335   
537.500000	8.307135   
538.000000	8.605278   
538.500000	8.905781   
539.000000	9.323148   
539.500000	9.749382   
540.000000	10.045207  
540.500000	10.373909  
541.000000	10.707280  
541.500000	10.941619  
542.000000	11.109608  
542.500000	11.320762  
543.000000	11.490439  
543.500000	11.429949  
544.000000	11.329161  
544.500000	11.192870  
545.000000	11.029721  
545.500000	10.850473  
546.000000	10.802866  
546.500000	10.771569  
547.000000	10.649591  
547.500000	10.488667  
548.000000	10.341044  
548.500000	10.122530  
549.000000	9.942833   
549.500000	9.880985   
550.000000	9.917192   
550.500000	9.995706   
551.000000	10.111467  
551.500000	10.274608  
552.000000	10.355912  
552.500000	10.385541  
553.000000	10.446200  
553.500000	10.415582  
554.000000	10.321256  
554.500000	10.221736  
555.000000	10.124985  
555.500000	10.121122  
556.000000	10.234352  
556.500000	10.644612  
557.000000	11.124450  
557.500000	11.593102  
558.000000	12.007402  
558.500000	12.161682  
559.000000	12.257076  
559.500000	12.258680  
560.000000	12.406510  
560.500000	12.798692  
561.000000	13.363050  
561.500000	14.045109  
562.000000	14.676664  
562.500000	15.232868  
563.000000	15.693491  
563.500000	16.071729  
564.000000	16.613371  
564.500000	17.278046  
565.000000	17.916966  
565.500000	18.545987  
566.000000	19.102128  
566.500000	19.604274  
567.000000	19.986549  
567.500000	20.531094  
568.000000	21.371725  
568.500000	22.263096  
569.000000	23.284209  
569.500000	24.320163  
570.000000	25.308367  
570.500000	26.194196  
571.000000	27.010042  
571.500000	27.871775  
572.000000	28.732846  
572.500000	29.556486  
573.000000	30.172165  
573.500000	30.674434  
574.000000	31.096339  
574.500000	31.545729  
575.000000	32.008061  
575.500000	32.681949  
576.000000	33.646805  
576.500000	34.626610  
577.000000	35.599432  
577.500000	36.496894  
578.000000	37.326998  
578.500000	37.954614  
579.000000	38.629504  
579.500000	39.452361  
580.000000	40.377274  
580.500000	41.519692  
581.000000	42.690478  
581.500000	43.859706  
582.000000	44.865888  
582.500000	45.787922  
583.000000	46.575755  
583.500000	47.331365  
584.000000	48.183779  
584.500000	49.326198  
585.000000	50.627346  
585.500000	51.953699  
586.000000	53.342977  
586.500000	54.629831  
587.000000	55.668424  
587.500000	56.450474  
588.000000	57.359766  
588.500000	58.402029  
589.000000	59.722020  
589.500000	61.301356  
590.000000	63.143736  
590.500000	64.859773  
591.000000	66.236129  
591.500000	67.477981  
592.000000	68.529745  
592.500000	69.467905  
593.000000	70.507406  
593.500000	72.025823  
594.000000	73.662942  
594.500000	75.597204  
595.000000	77.731745  
595.500000	79.823003  
596.000000	81.702575  
596.500000	83.303365  
597.000000	85.071489  
597.500000	86.690404  
598.000000	88.409701  
598.500000	90.376072  
599.000000	92.528512  
599.500000	94.608682  
600.000000	96.439356  
600.500000	98.284543  
601.000000	100.257493 
601.500000	102.494228 
602.000000	105.081536 
602.500000	107.797473 
603.000000	110.580870 
603.500000	113.002382 
604.000000	115.132558 
604.500000	117.340035 
605.000000	119.523528 
605.500000	121.874959 
606.000000	124.307385 
606.500000	126.972597 
607.000000	129.625994 
607.500000	132.392955 
608.000000	135.371504 
608.500000	138.574306 
609.000000	142.043133 
609.500000	145.642096 
610.000000	149.409515 
610.500000	152.932985 
611.000000	156.275222 
611.500000	159.282365 
612.000000	161.831224 
612.500000	164.240038 
613.000000	166.606675 
613.500000	169.239319 
614.000000	172.417410 
614.500000	176.235421 
615.000000	180.633096 
615.500000	184.991339 
616.000000	189.328972 
616.500000	193.322079 
617.000000	196.934805 
617.500000	200.495647 
618.000000	204.165079 
618.500000	208.156671 
619.000000	212.402551 
619.500000	216.703730 
620.000000	220.990795 
620.500000	225.190083 
621.000000	229.274777 
621.500000	233.099115 
622.000000	236.548959 
622.500000	239.917009 
623.000000	243.237938 
623.500000	246.556205 
624.000000	250.366126 
624.500000	254.674105 
625.000000	259.447515 
625.500000	264.223628 
626.000000	269.035549 
626.500000	273.118038 
627.000000	276.685129 
627.500000	280.284953 
628.000000	284.108198 
628.500000	288.180035 
629.000000	292.483259 
629.500000	297.399833 
630.000000	302.106649 
630.500000	306.420452 
631.000000	310.643532 
631.500000	314.674899 
632.000000	318.905031 
632.500000	322.359773 
633.000000	325.977551 
633.500000	329.559398 
634.000000	332.896298 
634.500000	335.884168 
635.000000	338.450621 
635.500000	341.273755 
636.000000	343.790846 
636.500000	346.283543 
637.000000	348.851974 
637.500000	351.671745 
638.000000	354.593923 
638.500000	357.916684 
639.000000	361.245411 
639.500000	364.310090 
640.000000	367.150471 
640.500000	369.277816 
641.000000	370.735434 
641.500000	371.216395 
642.000000	372.096155 
642.500000	372.763946 
643.000000	373.475721 
643.500000	374.866198 
644.000000	376.758838 
644.500000	378.866634 
645.000000	379.788738 
645.500000	380.102884 
646.000000	379.592857 
646.500000	378.595081 
647.000000	377.597664 
647.500000	376.766072 
648.000000	376.624812 
648.500000	376.421588 
649.000000	375.885458 
649.500000	374.954910 
650.000000	373.514946 
650.500000	372.308621 
651.000000	370.456656 
651.500000	368.738460 
652.000000	366.842437 
652.500000	364.487983 
653.000000	362.244092 
653.500000	359.751218 
654.000000	358.349291 
654.500000	356.647408 
655.000000	354.708070 
655.500000	352.169098 
656.000000	348.819152 
656.500000	345.553521 
657.000000	341.776300 
657.500000	339.070322 
658.000000	336.573547 
658.500000	333.810487 
659.000000	330.674124 
659.500000	327.054187 
660.000000	323.264714 
660.500000	318.558803 
661.000000	314.298029 
661.500000	310.624012 
662.000000	307.049274 
662.500000	303.338847 
663.000000	299.463614 
663.500000	295.479927 
664.000000	290.617274 
664.500000	285.546423 
665.000000	280.253877 
665.500000	275.113615 
666.000000	270.051404 
666.500000	265.017565 
667.000000	260.121146 
667.500000	255.027109 
668.000000	249.941834 
668.500000	244.423979 
669.000000	239.226879 
669.500000	234.461276 
670.000000	229.866617 
670.500000	225.283202 
671.000000	220.446994 
671.500000	215.625452 
672.000000	210.440035 
672.500000	205.250610 
673.000000	200.251294 
673.500000	195.696369 
674.000000	191.314085 
674.500000	187.049367 
675.000000	182.499012 
675.500000	177.605688 
676.000000	172.451087 
676.500000	167.198447 
677.000000	162.404194 
677.500000	157.774296 
678.000000	153.608979 
678.500000	149.685753 
679.000000	145.852916 
679.500000	142.153448 
680.000000	138.379458 
680.500000	135.167853 
681.000000	131.658489 
681.500000	128.089361 
682.000000	124.461176 
682.500000	120.670508 
683.000000	116.915582 
683.500000	113.280315 
684.000000	110.501263 
684.500000	107.934094 
685.000000	105.282042 
685.500000	102.593187 
686.000000	99.542864  
686.500000	96.186294  
687.000000	92.662530  
687.500000	89.596487  
688.000000	86.858285  
688.500000	84.305719  
689.000000	82.131064  
689.500000	79.982808  
690.000000	77.632994  
690.500000	75.143241  
691.000000	72.868137  
691.500000	70.821124  
692.000000	68.810005  
692.500000	67.253434  
693.000000	65.752144  
693.500000	64.156452  
694.000000	62.248306  
694.500000	60.140749  
695.000000	58.021257  
695.500000	55.711387  
696.000000	53.755374  
696.500000	52.158844  
697.000000	50.886380  
697.500000	49.734408  
698.000000	48.664107  
698.500000	47.618270  
699.000000	46.361916  
699.500000	45.053486  
700.000000	43.655684  
700.500000	42.291643  
701.000000	41.062489  
701.500000	40.014070  
702.000000	39.065916  
702.500000	38.259541  
703.000000	37.454530  
703.500000	36.626456  
704.000000	35.751853  
704.500000	34.828632  
705.000000	33.980302  
705.500000	33.090016  
706.000000	32.299287  
706.500000	31.507515  
707.000000	30.773519  
707.500000	30.022222  
708.000000	29.275703  
708.500000	28.513235  
709.000000	27.812610  
709.500000	27.238821  
710.000000	26.648625  
710.500000	26.233493  
711.000000	25.787408  
711.500000	25.313098  
712.000000	24.681621  
712.500000	24.131918  
713.000000	23.495736  
713.500000	22.733042  
714.000000	22.119549  
714.500000	21.551760  
715.000000	21.069081  
715.500000	20.555460  
716.000000	20.352621  
716.500000	20.115410  
717.000000	19.868673  
717.500000	19.625346  
718.000000	19.385910  
718.500000	18.993682  
719.000000	18.456886  
719.500000	17.975552  
720.000000	17.399688  
720.500000	16.863564  
721.000000	16.324014  
721.500000	15.889484  
722.000000	15.414736  
722.500000	15.016927  
723.000000	14.750808  
723.500000	14.512660  
724.000000	14.319141  
724.500000	14.092406  
725.000000	13.950814  
725.500000	13.671042  
726.000000	13.334977  
726.500000	13.003050  
727.000000	12.777743  
727.500000	12.563834  
728.000000	12.338356  
728.500000	12.190849  
729.000000	12.046794  
729.500000	11.771515  
730.000000	11.466374  
730.500000	11.294998  
731.000000	11.165376  
731.500000	11.044799  
732.000000	10.957693  
732.500000	10.928829  
733.000000	10.829037  
733.500000	10.649871  
734.000000	10.526222  
734.500000	10.289821  
735.000000	10.080209  
735.500000	9.862539   
736.000000	9.684358   
736.500000	9.504207   
737.000000	9.315942   
737.500000	9.252237   
738.000000	9.138192   
738.500000	9.059226   
739.000000	8.949426   
739.500000	8.765938   
740.000000	8.505530   
740.500000	8.193525   
741.000000	7.930359   
741.500000	7.670213   
742.000000	7.573588   
742.500000	7.580115   
743.000000	7.669608   
743.500000	7.768380   
744.000000	7.783602   
744.500000	7.651506   
745.000000	7.420961   
745.500000	7.226317   
746.000000	7.023283   
746.500000	6.833118   
747.000000	6.716018   
747.500000	6.646141   
748.000000	6.584562   
748.500000	6.534586   
749.000000	6.568478   
749.500000	6.590855   
750.000000	6.597482   
750.500000	6.581575   
751.000000	6.536074   
751.500000	6.409918   
752.000000	6.262834   
752.500000	6.123333   
753.000000	5.938732   
753.500000	5.727161   
754.000000	5.519686   
754.500000	5.374484   
755.000000	5.247261   
755.500000	5.242423   
756.000000	5.353382   
756.500000	5.484703   
757.000000	5.627951   
757.500000	5.730350   
758.000000	5.794434   
758.500000	5.705204   
759.000000	5.551962   
759.500000	5.374402   
760.000000	5.200037   
760.500000	5.053693   
761.000000	4.966163   
761.500000	4.983549   
762.000000	5.019602   
762.500000	5.080608   
763.000000	5.134679   
763.500000	5.184632   
764.000000	5.168877   
764.500000	5.113072   
765.000000	5.027090   
765.500000	4.868320   
766.000000	4.654448   
766.500000	4.472517   
767.000000	4.389458   
767.500000	4.330795   
768.000000	4.352957   
768.500000	4.450243   
769.000000	4.541113   
769.500000	4.534779   
770.000000	4.472185   
770.500000	4.381246   
771.000000	4.173474   
771.500000	3.968964   
772.000000	3.782447   
772.500000	3.668493   
773.000000	3.582285   
773.500000	3.575927   
774.000000	3.624035   
774.500000	3.643012   
775.000000	3.666478   
775.500000	3.617033   
776.000000	3.581573   
776.500000	3.555068   
777.000000	3.564541   
777.500000	3.593771   
778.000000	3.626074   
778.500000	3.662775   
779.000000	3.610307   
779.500000	3.548764   
780.000000	3.489057   
780.500000	3.452304   
781.000000	3.386280   
781.500000	3.350027   
782.000000	3.320380   
782.500000	3.281929   
783.000000	3.261063   
783.500000	3.263126   
784.000000	3.261627   
784.500000	3.235428   
785.000000	3.220079   
785.500000	3.188821   
786.000000	3.146278   
786.500000	3.109547   
787.000000	3.113495   
787.500000	3.092641   
788.000000	3.016447   
788.500000	2.923072   
789.000000	2.819580   
789.500000	2.750191   
790.000000	2.719836   
790.500000	2.760289   
791.000000	2.815129   
791.500000	2.881823   
792.000000	2.916630   
792.500000	2.915988   
793.000000	2.917829   
793.500000	2.936311   
794.000000	2.959001   
794.500000	2.923768   
795.000000	2.888775   
795.500000	2.859198   
796.000000	2.787712   
796.500000	2.751410   
797.000000	2.724979   
797.500000	2.720756   
798.000000	2.655220   
798.500000	2.556556   
799.000000	2.464463   
799.500000	2.369408   
800.000000	2.346589   
800.500000	2.334734   
801.000000	2.364730   
801.500000	2.421961   
802.000000	2.469599   
802.500000	2.496922   
803.000000	2.502170   
803.500000	2.546523   
804.000000	2.563502   
804.500000	2.544664   
805.000000	2.506858   
805.500000	2.458424   
806.000000	2.415165   
806.500000	2.415627   
807.000000	2.447369   
807.500000	2.482935   
808.000000	2.514552   
808.500000	2.522430   
809.000000	2.464289   
809.500000	2.363558   
810.000000	2.309684   
810.500000	2.256473   
811.000000	2.232545   
811.500000	2.240408   
812.000000	2.276413   
812.500000	2.247280   
813.000000	2.151072   
813.500000	2.074862   
814.000000	1.983855   
814.500000	1.912866   
815.000000	1.879009   
815.500000	1.902070   
816.000000	1.935124   
816.500000	1.971825   
817.000000	2.054994   
817.500000	2.112552   
818.000000	2.139706   
818.500000	2.132994   
819.000000	2.134790   
819.500000	2.108586   
820.000000	2.101382   
820.500000	2.143181   
821.000000	2.210261   
821.500000	2.282137   
822.000000	2.340669   
822.500000	2.444005   
823.000000	2.526497   
823.500000	2.607667   
824.000000	2.688033   
824.500000	2.704241   
825.000000	2.689649   
825.500000	2.631968   
826.000000	2.575666   
826.500000	2.521230   
827.000000	2.488063   
827.500000	2.442057   
828.000000	2.313165   
828.500000	2.167079   
829.000000	2.013747   
829.500000	1.853905   
830.000000	1.723120   
830.500000	1.659836   
831.000000	1.684795   
831.500000	1.709792   
832.000000	1.768287   
832.500000	1.822157   
833.000000	1.825185   
833.500000	1.753257   
834.000000	1.603949   
834.500000	1.441892   
835.000000	1.254348   
835.500000	1.129428   
836.000000	1.038447   
836.500000	1.014053   
837.000000	1.028589   
837.500000	1.012604   
838.000000	0.992502   
838.500000	0.948170   
839.000000	0.933708   
839.500000	0.912020   
840.000000	0.893443   
840.500000	0.884964   
841.000000	0.881423   
841.500000	0.894530   
842.000000	0.883576   
842.500000	0.877372   
843.000000	0.835048   
843.500000	0.794040   
844.000000	0.733500   
844.500000	0.675541   
845.000000	0.625205   
845.500000	0.579972   
846.000000	0.536870   
846.500000	0.459122   
847.000000	0.417538   
847.500000	0.391588   
848.000000	0.416090   
848.500000	0.455794   
849.000000	0.539994   
849.500000	0.646235   
850.000000	0.691482   
850.500000	0.681818   
851.000000	0.602782   
851.500000	0.506593   
852.000000	0.381610   
852.500000	0.267905   
853.000000	0.212450   
853.500000	0.190769   
854.000000	0.190810   
854.500000	0.188471   
855.000000	0.200020   
855.500000	0.203747   
856.000000	0.188463   
856.500000	0.189228   
857.000000	0.193632   
857.500000	0.171734   
858.000000	0.116066   
858.500000	0.026129   
859.000000	-0.048487  
859.500000	-0.099294  
860.000000	-0.079755  
860.500000	0.009666   
861.000000	0.098868   
861.500000	0.168647   
862.000000	0.204471   
862.500000	0.205823   
863.000000	0.171526   
863.500000	0.124985   
864.000000	0.103038   
864.500000	0.076716   
865.000000	0.049925   
865.500000	0.030604   
866.000000	0.028675   
866.500000	0.041235   
867.000000	0.064239   
867.500000	0.109259   
868.000000	0.144461   
868.500000	0.146378   
869.000000	0.126129   
869.500000	0.104949   
870.000000	0.091424   
870.500000	0.063410   
871.000000	0.032432   
871.500000	0.015261   
872.000000	0.000536   
872.500000	-0.060695  
873.000000	-0.129022  
873.500000	-0.168168  
874.000000	-0.201615  
874.500000	-0.201085  
875.000000	-0.166187  
875.500000	-0.078810  
876.000000	-0.018296  
876.500000	-0.001777  
877.000000	-0.012226  
877.500000	-0.047146  
878.000000	-0.067024  
878.500000	-0.107994  
879.000000	-0.101968  
879.500000	-0.057018  
880.000000	-0.015595  
880.500000	0.016033   
881.000000	0.026966   
881.500000	0.065450   
882.000000	0.066189   
882.500000	0.055881   
883.000000	0.036252   
883.500000	0.004476   
884.000000	-0.038664  
884.500000	-0.078157  
885.000000	-0.071786  
885.500000	-0.063098  
886.000000	-0.021688  
886.500000	-0.014218  
887.000000	-0.009033  
887.500000	-0.012153  
888.000000	-0.029747  
888.500000	-0.029038  
889.000000	-0.036417  
889.500000	0.009582   
890.000000	0.016786   
890.500000	0.029024   
891.000000	0.035554   
891.500000	0.024341   
892.000000	0.034614   
892.500000	0.011057   
893.000000	0.002502   
893.500000	-0.066536  
894.000000	-0.131740  
894.500000	-0.180085  
895.000000	-0.195779  
895.500000	-0.153322  
896.000000	-0.108632  
896.500000	-0.043063  

