PE FL                   SPECTRUM    ASCII       PEDS        1.60        
  -1
S01_IN~2.SP
24/04/11
16:06:11.00
24/04/11
16:06:11.00
Jan

896.500000
1









LS55
405.00
5.00
5.00
SCAN
1
20
100
100
0
400
0
1
0
1
5
ON
736 405 
1 0 0
#HDR
-1
-1
#GR
NM

0.00002384185791015625
0.0
450.000000
0.500000
894
8
416.019166
-0.151276
#DATA
450.000000	0.708000   
450.500000	0.487077   
451.000000	0.291604   
451.500000	0.134968   
452.000000	0.034150   
452.500000	-0.006987  
453.000000	-0.001157  
453.500000	0.021701   
454.000000	0.082905   
454.500000	0.147523   
455.000000	0.183894   
455.500000	0.188050   
456.000000	0.199914   
456.500000	0.186450   
457.000000	0.159280   
457.500000	0.147762   
458.000000	0.135500   
458.500000	0.141120   
459.000000	0.108591   
459.500000	0.057604   
460.000000	0.003393   
460.500000	-0.015332  
461.000000	-0.035805  
461.500000	-0.015192  
462.000000	0.059228   
462.500000	0.127059   
463.000000	0.161614   
463.500000	0.134050   
464.000000	0.080452   
464.500000	-0.018261  
465.000000	-0.072148  
465.500000	-0.066428  
466.000000	0.006166   
466.500000	0.096658   
467.000000	0.178833   
467.500000	0.208643   
468.000000	0.177426   
468.500000	0.154625   
469.000000	0.167961   
469.500000	0.219380   
470.000000	0.304506   
470.500000	0.393046   
471.000000	0.432717   
471.500000	0.402421   
472.000000	0.317602   
472.500000	0.218489   
473.000000	0.102758   
473.500000	0.031818   
474.000000	-0.029094  
474.500000	-0.074183  
475.000000	-0.122241  
475.500000	-0.145510  
476.000000	-0.109888  
476.500000	-0.071569  
477.000000	-0.004141  
477.500000	0.073053   
478.000000	0.138226   
478.500000	0.146033   
479.000000	0.153124   
479.500000	0.193365   
480.000000	0.252756   
480.500000	0.298378   
481.000000	0.378935   
481.500000	0.441755   
482.000000	0.455350   
482.500000	0.430705   
483.000000	0.398083   
483.500000	0.365515   
484.000000	0.294031   
484.500000	0.264948   
485.000000	0.224157   
485.500000	0.190337   
486.000000	0.183564   
486.500000	0.217528   
487.000000	0.235638   
487.500000	0.188014   
488.000000	0.164454   
488.500000	0.105450   
489.000000	0.037113   
489.500000	-0.019461  
490.000000	-0.011400  
490.500000	0.015248   
491.000000	0.057602   
491.500000	0.132578   
492.000000	0.188554   
492.500000	0.227243   
493.000000	0.230005   
493.500000	0.237085   
494.000000	0.211200   
494.500000	0.225248   
495.000000	0.249994   
495.500000	0.280315   
496.000000	0.337025   
496.500000	0.359035   
497.000000	0.369846   
497.500000	0.351706   
498.000000	0.401222   
498.500000	0.442356   
499.000000	0.499734   
499.500000	0.593833   
500.000000	0.659361   
500.500000	0.681946   
501.000000	0.677109   
501.500000	0.715345   
502.000000	0.733820   
502.500000	0.780434   
503.000000	0.840671   
503.500000	0.871602   
504.000000	0.843393   
504.500000	0.777717   
505.000000	0.713506   
505.500000	0.646226   
506.000000	0.635653   
506.500000	0.703968   
507.000000	0.819150   
507.500000	0.954128   
508.000000	1.098569   
508.500000	1.236244   
509.000000	1.303933   
509.500000	1.310751   
510.000000	1.285202   
510.500000	1.213756   
511.000000	1.153076   
511.500000	1.124671   
512.000000	1.207959   
512.500000	1.352254   
513.000000	1.536200   
513.500000	1.698087   
514.000000	1.803198   
514.500000	1.863949   
515.000000	1.862643   
515.500000	1.850144   
516.000000	1.828137   
516.500000	1.852356   
517.000000	1.872135   
517.500000	1.882621   
518.000000	1.948532   
518.500000	2.049500   
519.000000	2.166881   
519.500000	2.320257   
520.000000	2.511621   
520.500000	2.657493   
521.000000	2.708979   
521.500000	2.725178   
522.000000	2.713784   
522.500000	2.639146   
523.000000	2.599727   
523.500000	2.587923   
524.000000	2.625816   
524.500000	2.725883   
525.000000	2.890946   
525.500000	3.090447   
526.000000	3.258393   
526.500000	3.474222   
527.000000	3.665250   
527.500000	3.800680   
528.000000	3.999398   
528.500000	4.216280   
529.000000	4.448217   
529.500000	4.601608   
530.000000	4.733109   
530.500000	4.826506   
531.000000	4.839231   
531.500000	4.957766   
532.000000	5.134816   
532.500000	5.425896   
533.000000	5.711719   
533.500000	5.979920   
534.000000	6.223480   
534.500000	6.420929   
535.000000	6.603810   
535.500000	6.724341   
536.000000	6.895903   
536.500000	7.105254   
537.000000	7.476250   
537.500000	7.906619   
538.000000	8.424881   
538.500000	9.034551   
539.000000	9.571549   
539.500000	9.940825   
540.000000	10.133896  
540.500000	10.344833  
541.000000	10.464656  
541.500000	10.577361  
542.000000	10.792031  
542.500000	11.008482  
543.000000	11.092384  
543.500000	11.097142  
544.000000	11.169957  
544.500000	11.175452  
545.000000	11.172690  
545.500000	11.204430  
546.000000	11.161417  
546.500000	10.943925  
547.000000	10.734591  
547.500000	10.591623  
548.000000	10.450935  
548.500000	10.461307  
549.000000	10.578257  
549.500000	10.643508  
550.000000	10.526057  
550.500000	10.355552  
551.000000	10.179836  
551.500000	9.980534   
552.000000	9.932057   
552.500000	10.052211  
553.000000	10.232103  
553.500000	10.405821  
554.000000	10.611808  
554.500000	10.774053  
555.000000	10.869372  
555.500000	10.948307  
556.000000	11.115191  
556.500000	11.291962  
557.000000	11.457649  
557.500000	11.684938  
558.000000	11.883682  
558.500000	12.118636  
559.000000	12.312807  
559.500000	12.557280  
560.000000	12.873372  
560.500000	13.238476  
561.000000	13.617647  
561.500000	13.853959  
562.000000	14.141224  
562.500000	14.457031  
563.000000	14.723849  
563.500000	15.094525  
564.000000	15.696604  
564.500000	16.472326  
565.000000	17.206615  
565.500000	17.969241  
566.000000	18.869168  
566.500000	19.684914  
567.000000	20.479556  
567.500000	21.300304  
568.000000	22.147014  
568.500000	22.942434  
569.000000	23.675816  
569.500000	24.458142  
570.000000	25.141287  
570.500000	25.905966  
571.000000	26.582280  
571.500000	27.192805  
572.000000	27.852252  
572.500000	28.703196  
573.000000	29.833758  
573.500000	31.035463  
574.000000	32.496838  
574.500000	33.946265  
575.000000	35.103677  
575.500000	35.870855  
576.000000	36.355148  
576.500000	36.694057  
577.000000	37.004389  
577.500000	37.592679  
578.000000	38.644675  
578.500000	39.920146  
579.000000	41.290432  
579.500000	42.562610  
580.000000	43.630591  
580.500000	44.361627  
581.000000	44.901860  
581.500000	45.616636  
582.000000	46.390287  
582.500000	47.316018  
583.000000	48.380671  
583.500000	49.640951  
584.000000	50.835953  
584.500000	52.018270  
585.000000	53.286673  
585.500000	54.424675  
586.000000	55.370964  
586.500000	56.001081  
587.000000	56.753747  
587.500000	57.527627  
588.000000	58.584942  
588.500000	60.152328  
589.000000	62.050565  
589.500000	64.219474  
590.000000	66.083601  
590.500000	67.754749  
591.000000	69.070992  
591.500000	70.262100  
592.000000	71.559753  
592.500000	72.940512  
593.000000	74.735161  
593.500000	76.430795  
594.000000	78.124484  
594.500000	79.649576  
595.000000	81.020361  
595.500000	82.560768  
596.000000	84.166894  
596.500000	86.176237  
597.000000	88.428165  
597.500000	90.900404  
598.000000	93.407755  
598.500000	95.824541  
599.000000	98.076538  
599.500000	100.237252 
600.000000	102.161920 
600.500000	103.951723 
601.000000	105.923736 
601.500000	107.991387 
602.000000	110.428400 
602.500000	112.952777 
603.000000	115.766256 
603.500000	118.332820 
604.000000	120.723122 
604.500000	123.368187 
605.000000	125.994207 
605.500000	128.887337 
606.000000	131.779187 
606.500000	135.098974 
607.000000	138.287309 
607.500000	141.228851 
608.000000	144.341543 
608.500000	147.678927 
609.000000	150.966213 
609.500000	154.003016 
610.000000	157.331452 
610.500000	160.748027 
611.000000	163.827302 
611.500000	166.886753 
612.000000	170.535435 
612.500000	174.337040 
613.000000	177.620050 
613.500000	180.880955 
614.000000	184.367053 
614.500000	187.707163 
615.000000	191.084302 
615.500000	195.174519 
616.000000	199.962870 
616.500000	204.947730 
617.000000	209.838198 
617.500000	214.706634 
618.000000	219.258478 
618.500000	223.081421 
619.000000	226.672573 
619.500000	230.315400 
620.000000	234.332823 
620.500000	238.579536 
621.000000	242.705896 
621.500000	247.177092 
622.000000	251.439996 
622.500000	255.498974 
623.000000	259.394645 
623.500000	263.869437 
624.000000	268.675717 
624.500000	272.981009 
625.000000	277.431267 
625.500000	281.653103 
626.000000	285.514046 
626.500000	289.485129 
627.000000	293.898512 
627.500000	299.035831 
628.000000	304.306118 
628.500000	309.687725 
629.000000	314.781048 
629.500000	319.346576 
630.000000	323.940682 
630.500000	328.529330 
631.000000	333.211452 
631.500000	337.872246 
632.000000	342.457866 
632.500000	346.498786 
633.000000	349.792571 
633.500000	353.166866 
634.000000	356.453165 
634.500000	359.615669 
635.000000	363.120435 
635.500000	367.099502 
636.000000	371.293539 
636.500000	375.207857 
637.000000	379.261289 
637.500000	382.961649 
638.000000	386.015975 
638.500000	388.544801 
639.000000	390.828376 
639.500000	393.046398 
640.000000	395.437239 
640.500000	398.318243 
641.000000	401.719307 
641.500000	404.578000 
642.000000	406.821289 
642.500000	408.632335 
643.000000	409.877708 
643.500000	411.124552 
644.000000	412.282252 
644.500000	413.832384 
645.000000	415.055510 
645.500000	415.744450 
646.000000	416.008615 
646.500000	416.019166 
647.000000	415.681768 
647.500000	415.025970 
648.000000	414.719868 
648.500000	414.858332 
649.000000	415.028435 
649.500000	414.873267 
650.000000	414.942985 
650.500000	414.377961 
651.000000	412.992257 
651.500000	410.992823 
652.000000	408.805549 
652.500000	406.217710 
653.000000	403.829278 
653.500000	402.238510 
654.000000	401.158862 
654.500000	399.775202 
655.000000	398.217011 
655.500000	396.255688 
656.000000	393.272675 
656.500000	389.800552 
657.000000	385.760191 
657.500000	381.705159 
658.000000	377.332055 
658.500000	373.052747 
659.000000	369.222526 
659.500000	365.360209 
660.000000	361.506482 
660.500000	357.863272 
661.000000	354.251755 
661.500000	350.739033 
662.000000	346.731974 
662.500000	342.146686 
663.000000	337.440226 
663.500000	332.279970 
664.000000	327.489083 
664.500000	322.548040 
665.000000	317.821486 
665.500000	312.887532 
666.000000	307.313846 
666.500000	301.682656 
667.000000	295.211630 
667.500000	288.981653 
668.000000	282.983712 
668.500000	277.573456 
669.000000	272.621792 
669.500000	267.735352 
670.000000	263.362808 
670.500000	258.575938 
671.000000	253.409864 
671.500000	247.742235 
672.000000	242.003324 
672.500000	235.797046 
673.000000	229.384495 
673.500000	223.341085 
674.000000	217.216363 
674.500000	211.344886 
675.000000	205.726881 
675.500000	200.706658 
676.000000	196.049270 
676.500000	191.736397 
677.000000	187.615417 
677.500000	183.333558 
678.000000	179.039888 
678.500000	174.543256 
679.000000	169.919717 
679.500000	165.348975 
680.000000	160.836463 
680.500000	156.573113 
681.000000	152.008875 
681.500000	147.331170 
682.000000	142.770608 
682.500000	138.116057 
683.000000	133.722040 
683.500000	129.495686 
684.000000	125.653593 
684.500000	122.219866 
685.000000	118.909194 
685.500000	115.948764 
686.000000	113.099871 
686.500000	110.195352 
687.000000	107.054074 
687.500000	103.809957 
688.000000	100.734810 
688.500000	97.445092  
689.000000	94.520884  
689.500000	91.824812  
690.000000	89.226777  
690.500000	86.763732  
691.000000	84.188371  
691.500000	81.826168  
692.000000	79.520660  
692.500000	77.443742  
693.000000	75.574521  
693.500000	73.729782  
694.000000	71.787102  
694.500000	69.723126  
695.000000	67.643185  
695.500000	65.574291  
696.000000	63.690604  
696.500000	61.911862  
697.000000	60.388016  
697.500000	58.822853  
698.000000	57.092777  
698.500000	55.321667  
699.000000	53.651267  
699.500000	52.073595  
700.000000	50.505818  
700.500000	49.103012  
701.000000	47.819437  
701.500000	46.486827  
702.000000	45.275118  
702.500000	44.151063  
703.000000	42.991239  
703.500000	41.879135  
704.000000	40.755204  
704.500000	39.719525  
705.000000	38.671573  
705.500000	37.774547  
706.000000	36.967413  
706.500000	35.988306  
707.000000	34.889632  
707.500000	33.679402  
708.000000	32.529341  
708.500000	31.413513  
709.000000	30.484972  
709.500000	29.858181  
710.000000	29.404638  
710.500000	29.008647  
711.000000	28.614077  
711.500000	28.237235  
712.000000	27.897165  
712.500000	27.455814  
713.000000	26.865964  
713.500000	26.187356  
714.000000	25.379866  
714.500000	24.535795  
715.000000	23.694970  
715.500000	23.026966  
716.000000	22.562074  
716.500000	22.260166  
717.000000	22.126231  
717.500000	22.010589  
718.000000	21.848601  
718.500000	21.538725  
719.000000	21.108400  
719.500000	20.571480  
720.000000	19.937426  
720.500000	19.301068  
721.000000	18.745892  
721.500000	18.161202  
722.000000	17.527658  
722.500000	16.989788  
723.000000	16.542166  
723.500000	16.161294  
724.000000	15.835367  
724.500000	15.730406  
725.000000	15.700000  
725.500000	15.494541  
726.000000	15.209881  
726.500000	14.936384  
727.000000	14.614866  
727.500000	14.203339  
728.000000	13.818517  
728.500000	13.565165  
729.000000	13.318525  
729.500000	13.067025  
730.000000	12.877773  
730.500000	12.755040  
731.000000	12.666423  
731.500000	12.508575  
732.000000	12.373857  
732.500000	12.209504  
733.000000	12.034304  
733.500000	11.793361  
734.000000	11.614534  
734.500000	11.491142  
735.000000	11.291033  
735.500000	11.016797  
736.000000	10.741248  
736.500000	10.517098  
737.000000	10.247398  
737.500000	10.042730  
738.000000	9.911421   
738.500000	9.815877   
739.000000	9.638851   
739.500000	9.442586   
740.000000	9.269204   
740.500000	9.061294   
741.000000	8.855337   
741.500000	8.702092   
742.000000	8.592632   
742.500000	8.423727   
743.000000	8.243248   
743.500000	8.139350   
744.000000	8.077168   
744.500000	8.090508   
745.000000	8.094614   
745.500000	8.080656   
746.000000	7.950821   
746.500000	7.706424   
747.000000	7.522831   
747.500000	7.381614   
748.000000	7.325701   
748.500000	7.402849   
749.000000	7.447627   
749.500000	7.403883   
750.000000	7.220873   
750.500000	6.957821   
751.000000	6.677269   
751.500000	6.412495   
752.000000	6.363727   
752.500000	6.393975   
753.000000	6.484293   
753.500000	6.613228   
754.000000	6.697682   
754.500000	6.763435   
755.000000	6.619931   
755.500000	6.497725   
756.000000	6.309228   
756.500000	6.127426   
757.000000	5.977808   
757.500000	5.863974   
758.000000	5.791087   
758.500000	5.709189   
759.000000	5.621350   
759.500000	5.514606   
760.000000	5.449883   
760.500000	5.411046   
761.000000	5.381345   
761.500000	5.401784   
762.000000	5.440397   
762.500000	5.448773   
763.000000	5.431012   
763.500000	5.369606   
764.000000	5.304250   
764.500000	5.185513   
765.000000	5.036525   
765.500000	4.923317   
766.000000	4.823239   
766.500000	4.767113   
767.000000	4.705719   
767.500000	4.684461   
768.000000	4.634790   
768.500000	4.608294   
769.000000	4.584933   
769.500000	4.575150   
770.000000	4.546519   
770.500000	4.532410   
771.000000	4.493705   
771.500000	4.433812   
772.000000	4.399070   
772.500000	4.337187   
773.000000	4.329432   
773.500000	4.261899   
774.000000	4.214949   
774.500000	4.141977   
775.000000	4.033564   
775.500000	3.953719   
776.000000	3.803983   
776.500000	3.751727   
777.000000	3.694064   
777.500000	3.675842   
778.000000	3.725985   
778.500000	3.791775   
779.000000	3.864291   
779.500000	3.848076   
780.000000	3.835896   
780.500000	3.755836   
781.000000	3.611233   
781.500000	3.478912   
782.000000	3.372411   
782.500000	3.275807   
783.000000	3.198224   
783.500000	3.204638   
784.000000	3.224729   
784.500000	3.219706   
785.000000	3.252105   
785.500000	3.314935   
786.000000	3.331554   
786.500000	3.375456   
787.000000	3.457968   
787.500000	3.505710   
788.000000	3.512968   
788.500000	3.483146   
789.000000	3.431320   
789.500000	3.340497   
790.000000	3.298153   
790.500000	3.272269   
791.000000	3.233873   
791.500000	3.203901   
792.000000	3.148786   
792.500000	3.070309   
793.000000	2.950202   
793.500000	2.883651   
794.000000	2.818705   
794.500000	2.796630   
795.000000	2.766877   
795.500000	2.737191   
796.000000	2.697289   
796.500000	2.625183   
797.000000	2.592892   
797.500000	2.547790   
798.000000	2.601936   
798.500000	2.662833   
799.000000	2.713857   
799.500000	2.727576   
800.000000	2.687118   
800.500000	2.602723   
801.000000	2.401879   
801.500000	2.225541   
802.000000	2.081567   
802.500000	2.033853   
803.000000	2.024491   
803.500000	2.099604   
804.000000	2.242753   
804.500000	2.329751   
805.000000	2.392172   
805.500000	2.377256   
806.000000	2.328361   
806.500000	2.212992   
807.000000	2.111608   
807.500000	2.074259   
808.000000	2.049102   
808.500000	2.116764   
809.000000	2.196749   
809.500000	2.295912   
810.000000	2.357671   
810.500000	2.383263   
811.000000	2.356931   
811.500000	2.259871   
812.000000	2.171697   
812.500000	2.045491   
813.000000	1.965894   
813.500000	1.951293   
814.000000	1.950771   
814.500000	1.935072   
815.000000	1.919589   
815.500000	1.920343   
816.000000	1.860040   
816.500000	1.802391   
817.000000	1.802599   
817.500000	1.869803   
818.000000	1.964545   
818.500000	2.044172   
819.000000	2.118660   
819.500000	2.156821   
820.000000	2.139569   
820.500000	2.103345   
821.000000	2.108907   
821.500000	2.195519   
822.000000	2.304682   
822.500000	2.445309   
823.000000	2.573484   
823.500000	2.661491   
824.000000	2.662482   
824.500000	2.598092   
825.000000	2.532079   
825.500000	2.488801   
826.000000	2.492962   
826.500000	2.501063   
827.000000	2.520410   
827.500000	2.512285   
828.000000	2.450424   
828.500000	2.351178   
829.000000	2.187812   
829.500000	2.007397   
830.000000	1.811294   
830.500000	1.609150   
831.000000	1.449105   
831.500000	1.334653   
832.000000	1.307380   
832.500000	1.343476   
833.000000	1.380565   
833.500000	1.424595   
834.000000	1.416385   
834.500000	1.365946   
835.000000	1.287931   
835.500000	1.231562   
836.000000	1.197406   
836.500000	1.179829   
837.000000	1.184205   
837.500000	1.182857   
838.000000	1.158528   
838.500000	1.124499   
839.000000	1.068899   
839.500000	0.994686   
840.000000	0.919022   
840.500000	0.832771   
841.000000	0.784884   
841.500000	0.741144   
842.000000	0.710257   
842.500000	0.706914   
843.000000	0.699821   
843.500000	0.696608   
844.000000	0.674276   
844.500000	0.655601   
845.000000	0.657231   
845.500000	0.656610   
846.000000	0.675851   
846.500000	0.707499   
847.000000	0.695248   
847.500000	0.633614   
848.000000	0.542870   
848.500000	0.431810   
849.000000	0.296465   
849.500000	0.193426   
850.000000	0.163641   
850.500000	0.188500   
851.000000	0.231551   
851.500000	0.306998   
852.000000	0.361877   
852.500000	0.392089   
853.000000	0.349500   
853.500000	0.263029   
854.000000	0.145122   
854.500000	0.012230   
855.000000	-0.054781  
855.500000	-0.068871  
856.000000	-0.001389  
856.500000	0.101211   
857.000000	0.190896   
857.500000	0.236003   
858.000000	0.223818   
858.500000	0.202827   
859.000000	0.138962   
859.500000	0.065244   
860.000000	0.008632   
860.500000	-0.026942  
861.000000	-0.056335  
861.500000	-0.082237  
862.000000	-0.049306  
862.500000	0.008495   
863.000000	0.054179   
863.500000	0.097502   
864.000000	0.118137   
864.500000	0.111931   
865.000000	0.087395   
865.500000	0.079233   
866.000000	0.073217   
866.500000	0.063975   
867.000000	0.079730   
867.500000	0.108267   
868.000000	0.136335   
868.500000	0.178948   
869.000000	0.224250   
869.500000	0.216027   
870.000000	0.156211   
870.500000	0.082382   
871.000000	0.022181   
871.500000	-0.040367  
872.000000	-0.071437  
872.500000	-0.028257  
873.000000	0.043398   
873.500000	0.077166   
874.000000	0.079974   
874.500000	0.083037   
875.000000	0.073992   
875.500000	0.029274   
876.000000	0.038519   
876.500000	0.066794   
877.000000	0.108437   
877.500000	0.102734   
878.000000	0.081938   
878.500000	0.044998   
879.000000	-0.009576  
879.500000	-0.026348  
880.000000	-0.018712  
880.500000	0.065617   
881.000000	0.146541   
881.500000	0.205582   
882.000000	0.210810   
882.500000	0.172719   
883.000000	0.129428   
883.500000	0.044322   
884.000000	0.012309   
884.500000	0.016588   
885.000000	0.023634   
885.500000	0.010332   
886.000000	-0.030217  
886.500000	-0.070738  
887.000000	-0.126287  
887.500000	-0.143760  
888.000000	-0.101705  
888.500000	-0.035719  
889.000000	0.035100   
889.500000	0.051948   
890.000000	0.052432   
890.500000	0.005224   
891.000000	-0.037293  
891.500000	-0.036790  
892.000000	-0.023608  
892.500000	0.000400   
893.000000	-0.001782  
893.500000	-0.020252  
894.000000	-0.079842  
894.500000	-0.128784  
895.000000	-0.151276  
895.500000	-0.147695  
896.000000	-0.114293  
896.500000	-0.049231  

