PE FL                   SPECTRUM    ASCII       PEDS        1.60        
  -1
S0139B~1.SP
24/04/11
17:03:13.00
24/04/11
17:03:13.00
Jan

896.500000
1









LS55
405.00
5.00
5.00
SCAN
1
20
100
100
0
400
0
1
0
1
5
ON
736 405 
1 0 0
#HDR
-1
-1
#GR
NM

0.00002384185791015625
0.0
450.000000
0.500000
894
8
325.703137
-0.236755
#DATA
450.000000	0.000999   
450.500000	-0.105165  
451.000000	-0.156821  
451.500000	-0.161441  
452.000000	-0.086128  
452.500000	-0.053844  
453.000000	-0.043172  
453.500000	-0.073126  
454.000000	-0.116009  
454.500000	-0.140738  
455.000000	-0.140077  
455.500000	-0.079204  
456.000000	-0.027571  
456.500000	0.045146   
457.000000	0.089020   
457.500000	0.097142   
458.000000	0.084007   
458.500000	0.075222   
459.000000	0.070287   
459.500000	0.045602   
460.000000	0.066842   
460.500000	0.122135   
461.000000	0.145100   
461.500000	0.131411   
462.000000	0.098714   
462.500000	0.044944   
463.000000	-0.022786  
463.500000	-0.035860  
464.000000	0.035675   
464.500000	0.127807   
465.000000	0.209599   
465.500000	0.244452   
466.000000	0.220838   
466.500000	0.118378   
467.000000	0.014421   
467.500000	-0.052499  
468.000000	-0.081246  
468.500000	-0.057742  
469.000000	-0.015102  
469.500000	0.034855   
470.000000	0.041528   
470.500000	0.099482   
471.000000	0.116365   
471.500000	0.080693   
472.000000	0.026651   
472.500000	-0.047513  
473.000000	-0.138486  
473.500000	-0.236755  
474.000000	-0.211174  
474.500000	-0.111762  
475.000000	0.000443   
475.500000	0.143608   
476.000000	0.259858   
476.500000	0.290972   
477.000000	0.237098   
477.500000	0.200762   
478.000000	0.182215   
478.500000	0.210474   
479.000000	0.256944   
479.500000	0.296226   
480.000000	0.287738   
480.500000	0.239100   
481.000000	0.166565   
481.500000	0.083183   
482.000000	0.052222   
482.500000	0.027061   
483.000000	0.025647   
483.500000	0.016196   
484.000000	0.005050   
484.500000	-0.006217  
485.000000	-0.002747  
485.500000	0.048582   
486.000000	0.098074   
486.500000	0.149096   
487.000000	0.189241   
487.500000	0.206246   
488.000000	0.174487   
488.500000	0.146070   
489.000000	0.110322   
489.500000	0.083141   
490.000000	0.062853   
490.500000	0.082155   
491.000000	0.141946   
491.500000	0.218337   
492.000000	0.275601   
492.500000	0.282836   
493.000000	0.270361   
493.500000	0.201339   
494.000000	0.104658   
494.500000	0.013929   
495.000000	-0.004040  
495.500000	0.023508   
496.000000	0.069717   
496.500000	0.142285   
497.000000	0.258729   
497.500000	0.360493   
498.000000	0.423612   
498.500000	0.513779   
499.000000	0.612638   
499.500000	0.674929   
500.000000	0.678384   
500.500000	0.674027   
501.000000	0.610165   
501.500000	0.507115   
502.000000	0.417987   
502.500000	0.395654   
503.000000	0.401395   
503.500000	0.436205   
504.000000	0.559330   
504.500000	0.696849   
505.000000	0.830118   
505.500000	0.935877   
506.000000	1.008170   
506.500000	1.022471   
507.000000	1.017736   
507.500000	1.024369   
508.000000	1.060393   
508.500000	1.159658   
509.000000	1.284410   
509.500000	1.406007   
510.000000	1.478074   
510.500000	1.513142   
511.000000	1.556204   
511.500000	1.597814   
512.000000	1.659513   
512.500000	1.793873   
513.000000	1.903076   
513.500000	1.947525   
514.000000	1.942820   
514.500000	1.942623   
515.000000	1.953387   
515.500000	1.974846   
516.000000	2.114673   
516.500000	2.327461   
517.000000	2.519599   
517.500000	2.659801   
518.000000	2.736137   
518.500000	2.756339   
519.000000	2.676532   
519.500000	2.615029   
520.000000	2.589261   
520.500000	2.585157   
521.000000	2.644083   
521.500000	2.722040   
522.000000	2.831545   
522.500000	2.935547   
523.000000	3.012664   
523.500000	3.060053   
524.000000	3.084217   
524.500000	3.146693   
525.000000	3.254393   
525.500000	3.397317   
526.000000	3.582035   
526.500000	3.833836   
527.000000	4.104901   
527.500000	4.291090   
528.000000	4.465461   
528.500000	4.657465   
529.000000	4.891977   
529.500000	5.097951   
530.000000	5.310263   
530.500000	5.538794   
531.000000	5.647285   
531.500000	5.704439   
532.000000	5.756029   
532.500000	5.875814   
533.000000	6.090719   
533.500000	6.366935   
534.000000	6.740309   
534.500000	7.118285   
535.000000	7.490282   
535.500000	7.781161   
536.000000	7.979894   
536.500000	8.248025   
537.000000	8.533410   
537.500000	8.919437   
538.000000	9.392476   
538.500000	9.968500   
539.000000	10.594569  
539.500000	11.071525  
540.000000	11.485532  
540.500000	11.673452  
541.000000	11.757163  
541.500000	11.811909  
542.000000	11.883831  
542.500000	12.031382  
543.000000	12.143359  
543.500000	12.277474  
544.000000	12.271918  
544.500000	12.158423  
545.000000	12.017302  
545.500000	11.878261  
546.000000	11.762846  
546.500000	11.550562  
547.000000	11.312901  
547.500000	11.027233  
548.000000	10.733452  
548.500000	10.481677  
549.000000	10.375508  
549.500000	10.403923  
550.000000	10.397534  
550.500000	10.354000  
551.000000	10.206923  
551.500000	10.093816  
552.000000	10.022380  
552.500000	10.020903  
553.000000	10.170766  
553.500000	10.325634  
554.000000	10.480931  
554.500000	10.494215  
555.000000	10.459571  
555.500000	10.507467  
556.000000	10.528734  
556.500000	10.643434  
557.000000	10.825487  
557.500000	11.120799  
558.000000	11.453239  
558.500000	11.765679  
559.000000	12.127194  
559.500000	12.378922  
560.000000	12.648463  
560.500000	12.932677  
561.000000	13.299660  
561.500000	13.805797  
562.000000	14.399413  
562.500000	14.997250  
563.000000	15.466317  
563.500000	15.894671  
564.000000	16.287875  
564.500000	16.745905  
565.000000	17.294834  
565.500000	17.957166  
566.000000	18.646111  
566.500000	19.285996  
567.000000	19.905200  
567.500000	20.367105  
568.000000	20.925638  
568.500000	21.533675  
569.000000	22.303061  
569.500000	23.096792  
570.000000	23.927530  
570.500000	24.721717  
571.000000	25.269970  
571.500000	25.742719  
572.000000	26.099133  
572.500000	26.482369  
573.000000	26.907743  
573.500000	27.541781  
574.000000	28.399508  
574.500000	29.330118  
575.000000	30.199680  
575.500000	30.888107  
576.000000	31.409730  
576.500000	31.825877  
577.000000	32.348320  
577.500000	32.973625  
578.000000	33.876209  
578.500000	34.821805  
579.000000	35.786621  
579.500000	36.673269  
580.000000	37.351690  
580.500000	38.130942  
581.000000	38.786606  
581.500000	39.568654  
582.000000	40.502011  
582.500000	41.450165  
583.000000	42.508141  
583.500000	43.421936  
584.000000	44.652578  
584.500000	45.939042  
585.000000	47.146909  
585.500000	48.380551  
586.000000	49.484222  
586.500000	50.761944  
587.000000	51.657957  
587.500000	52.779441  
588.000000	54.138144  
588.500000	55.607024  
589.000000	57.179448  
589.500000	58.762562  
590.000000	60.550448  
590.500000	61.841818  
591.000000	63.086905  
591.500000	64.305508  
592.000000	65.541569  
592.500000	66.689335  
593.000000	67.829968  
593.500000	69.313905  
594.000000	70.683679  
594.500000	72.247853  
595.000000	73.921489  
595.500000	75.863059  
596.000000	77.983929  
596.500000	80.151434  
597.000000	82.317591  
597.500000	84.404768  
598.000000	86.550124  
598.500000	88.426051  
599.000000	90.360870  
599.500000	92.496267  
600.000000	94.558923  
600.500000	96.450291  
601.000000	98.576406  
601.500000	101.058493 
602.000000	103.355701 
602.500000	105.768016 
603.000000	108.577660 
603.500000	111.371716 
604.000000	113.954098 
604.500000	116.471820 
605.000000	119.117356 
605.500000	121.569753 
606.000000	123.931899 
606.500000	126.259191 
607.000000	128.568044 
607.500000	130.905914 
608.000000	133.331064 
608.500000	136.010551 
609.000000	138.824224 
609.500000	141.826461 
610.000000	144.735397 
610.500000	147.696404 
611.000000	150.888571 
611.500000	154.024408 
612.000000	157.331196 
612.500000	160.766200 
613.000000	164.212814 
613.500000	167.384335 
614.000000	170.529187 
614.500000	173.908786 
615.000000	177.236395 
615.500000	180.608430 
616.000000	184.054929 
616.500000	187.489025 
617.000000	190.772614 
617.500000	194.030222 
618.000000	197.678727 
618.500000	201.760179 
619.000000	205.987391 
619.500000	210.061012 
620.000000	213.821530 
620.500000	217.360721 
621.000000	220.347092 
621.500000	222.938135 
622.000000	225.802925 
622.500000	228.947721 
623.000000	232.176482 
623.500000	235.316146 
624.000000	239.159634 
624.500000	243.456786 
625.000000	247.809354 
625.500000	252.576241 
626.000000	257.175640 
626.500000	261.466372 
627.000000	264.932593 
627.500000	267.658972 
628.000000	270.050944 
628.500000	272.406276 
629.000000	275.288378 
629.500000	278.345426 
630.000000	281.604454 
630.500000	284.927311 
631.000000	287.927660 
631.500000	290.604252 
632.000000	293.187471 
632.500000	296.038335 
633.000000	298.879541 
633.500000	301.743619 
634.000000	304.777942 
634.500000	307.455267 
635.000000	309.713352 
635.500000	312.075868 
636.000000	314.092413 
636.500000	315.597005 
637.000000	316.537961 
637.500000	317.263228 
638.000000	317.515944 
638.500000	317.426187 
639.000000	318.288829 
639.500000	319.734942 
640.000000	321.722510 
640.500000	323.081562 
641.000000	324.594460 
641.500000	325.703137 
642.000000	325.453081 
642.500000	325.351027 
643.000000	324.914944 
643.500000	324.850875 
644.000000	324.197367 
644.500000	323.701423 
645.000000	323.587944 
645.500000	322.924458 
646.000000	322.633246 
646.500000	322.260176 
647.000000	322.020983 
647.500000	321.129948 
648.000000	319.842716 
648.500000	318.697263 
649.000000	316.691432 
649.500000	314.697011 
650.000000	312.754994 
650.500000	310.959413 
651.000000	308.805855 
651.500000	306.178276 
652.000000	303.716051 
652.500000	301.271706 
653.000000	298.733415 
653.500000	296.246302 
654.000000	294.194693 
654.500000	292.319126 
655.000000	289.589363 
655.500000	286.304174 
656.000000	282.931256 
656.500000	279.100237 
657.000000	275.110100 
657.500000	271.323974 
658.000000	267.898944 
658.500000	264.208530 
659.000000	259.913844 
659.500000	255.781400 
660.000000	251.576146 
660.500000	247.606261 
661.000000	244.074215 
661.500000	240.777365 
662.000000	237.470037 
662.500000	233.707597 
663.000000	229.557866 
663.500000	224.732627 
664.000000	219.210554 
664.500000	214.062836 
665.000000	209.188530 
665.500000	204.669847 
666.000000	200.286719 
666.500000	196.152801 
667.000000	192.149727 
667.500000	187.662048 
668.000000	183.183513 
668.500000	178.916686 
669.000000	174.516280 
669.500000	170.073471 
670.000000	165.697916 
670.500000	161.405387 
671.000000	156.978762 
671.500000	152.483664 
672.000000	148.521421 
672.500000	144.613499 
673.000000	140.953059 
673.500000	137.398207 
674.000000	133.613517 
674.500000	130.117927 
675.000000	126.513868 
675.500000	123.011033 
676.000000	119.419137 
676.500000	116.098840 
677.000000	112.902734 
677.500000	109.635092 
678.000000	106.837222 
678.500000	104.179343 
679.000000	101.593294 
679.500000	98.806087  
680.000000	95.816775  
680.500000	92.767487  
681.000000	89.519894  
681.500000	86.573719  
682.000000	83.992038  
682.500000	81.721473  
683.000000	79.513333  
683.500000	77.223818  
684.000000	74.884244  
684.500000	72.350326  
685.000000	69.890226  
685.500000	67.603287  
686.000000	65.691682  
686.500000	63.962899  
687.000000	62.250625  
687.500000	60.657526  
688.000000	59.005654  
688.500000	57.250269  
689.000000	55.614235  
689.500000	54.185710  
690.000000	52.725252  
690.500000	51.404120  
691.000000	50.121404  
691.500000	49.020348  
692.000000	47.790560  
692.500000	46.460109  
693.000000	45.294797  
693.500000	44.166046  
694.000000	43.132120  
694.500000	41.909758  
695.000000	40.813363  
695.500000	39.638858  
696.000000	38.400515  
696.500000	37.217530  
697.000000	36.105944  
697.500000	35.099302  
698.000000	34.084020  
698.500000	33.085972  
699.000000	32.107413  
699.500000	31.078858  
700.000000	30.103267  
700.500000	29.209053  
701.000000	28.414948  
701.500000	27.787948  
702.000000	27.187684  
702.500000	26.605597  
703.000000	26.129283  
703.500000	25.712584  
704.000000	25.203621  
704.500000	24.613300  
705.000000	23.973404  
705.500000	23.258259  
706.000000	22.539484  
706.500000	21.847244  
707.000000	21.359124  
707.500000	20.951526  
708.000000	20.575849  
708.500000	20.188790  
709.000000	19.776012  
709.500000	19.378278  
710.000000	18.896962  
710.500000	18.561942  
711.000000	18.422139  
711.500000	18.228851  
712.000000	17.968057  
712.500000	17.579532  
713.000000	17.114742  
713.500000	16.447317  
714.000000	15.818729  
714.500000	15.470333  
715.000000	15.243113  
715.500000	15.191619  
716.000000	15.185215  
716.500000	15.175942  
717.000000	14.943944  
717.500000	14.544643  
718.000000	14.067178  
718.500000	13.551122  
719.000000	13.078701  
719.500000	12.706027  
720.000000	12.515246  
720.500000	12.372348  
721.000000	12.292181  
721.500000	12.157959  
722.000000	12.005152  
722.500000	11.778183  
723.000000	11.490536  
723.500000	11.254510  
724.000000	11.028601  
724.500000	10.893235  
725.000000	10.728766  
725.500000	10.545630  
726.000000	10.317050  
726.500000	10.103636  
727.000000	9.896740   
727.500000	9.650938   
728.000000	9.476580   
728.500000	9.375912   
729.000000	9.178463   
729.500000	8.942194   
730.000000	8.770189   
730.500000	8.628679   
731.000000	8.484395   
731.500000	8.457714   
732.000000	8.593124   
732.500000	8.639582   
733.000000	8.621818   
733.500000	8.575697   
734.000000	8.471285   
734.500000	8.244463   
735.000000	8.029619   
735.500000	7.946215   
736.000000	7.823851   
736.500000	7.713764   
737.000000	7.623686   
737.500000	7.554840   
738.000000	7.437656   
738.500000	7.330871   
739.000000	7.324925   
739.500000	7.315068   
740.000000	7.265493   
740.500000	7.145252   
741.000000	7.036773   
741.500000	6.903825   
742.000000	6.694059   
742.500000	6.496174   
743.000000	6.366083   
743.500000	6.238734   
744.000000	6.057094   
744.500000	5.931324   
745.000000	5.899497   
745.500000	5.888250   
746.000000	5.847910   
746.500000	5.851823   
747.000000	5.875460   
747.500000	5.819421   
748.000000	5.734218   
748.500000	5.657725   
749.000000	5.650881   
749.500000	5.644692   
750.000000	5.646666   
750.500000	5.668504   
751.000000	5.697914   
751.500000	5.669283   
752.000000	5.545892   
752.500000	5.402220   
753.000000	5.242294   
753.500000	5.077469   
754.000000	4.933803   
754.500000	4.901753   
755.000000	4.978181   
755.500000	5.078981   
756.000000	5.179257   
756.500000	5.223246   
757.000000	5.149621   
757.500000	4.980812   
758.000000	4.807797   
758.500000	4.736766   
759.000000	4.642280   
759.500000	4.638423   
760.000000	4.674547   
760.500000	4.654782   
761.000000	4.613209   
761.500000	4.588166   
762.000000	4.671532   
762.500000	4.700038   
763.000000	4.713734   
763.500000	4.710035   
764.000000	4.593304   
764.500000	4.434944   
765.000000	4.265001   
765.500000	4.170564   
766.000000	4.086072   
766.500000	4.021953   
767.000000	3.953981   
767.500000	3.874617   
768.000000	3.871187   
768.500000	3.906252   
769.000000	3.902330   
769.500000	3.913953   
770.000000	3.919141   
770.500000	3.865172   
771.000000	3.742812   
771.500000	3.668552   
772.000000	3.645118   
772.500000	3.583602   
773.000000	3.506823   
773.500000	3.453461   
774.000000	3.365521   
774.500000	3.235178   
775.000000	3.116825   
775.500000	3.098513   
776.000000	3.148486   
776.500000	3.230929   
777.000000	3.353029   
777.500000	3.478564   
778.000000	3.559113   
778.500000	3.554040   
779.000000	3.496972   
779.500000	3.413933   
780.000000	3.271298   
780.500000	3.109684   
781.000000	2.962755   
781.500000	2.873378   
782.000000	2.827439   
782.500000	2.838287   
783.000000	2.938035   
783.500000	3.044382   
784.000000	3.111916   
784.500000	3.121788   
785.000000	3.083320   
785.500000	3.016363   
786.000000	2.936936   
786.500000	2.905549   
787.000000	2.919408   
787.500000	2.939671   
788.000000	2.951992   
788.500000	2.955627   
789.000000	2.954929   
789.500000	2.937634   
790.000000	2.902207   
790.500000	2.852124   
791.000000	2.774710   
791.500000	2.708719   
792.000000	2.651901   
792.500000	2.635860   
793.000000	2.655484   
793.500000	2.662105   
794.000000	2.658248   
794.500000	2.600367   
795.000000	2.541105   
795.500000	2.496935   
796.000000	2.491313   
796.500000	2.513842   
797.000000	2.551697   
797.500000	2.611252   
798.000000	2.622419   
798.500000	2.613406   
799.000000	2.586818   
799.500000	2.597677   
800.000000	2.591072   
800.500000	2.570198   
801.000000	2.517003   
801.500000	2.415844   
802.000000	2.290142   
802.500000	2.189881   
803.000000	2.135534   
803.500000	2.128502   
804.000000	2.213951   
804.500000	2.269975   
805.000000	2.328495   
805.500000	2.341883   
806.000000	2.301671   
806.500000	2.235320   
807.000000	2.171437   
807.500000	2.174586   
808.000000	2.130343   
808.500000	2.110447   
809.000000	2.027365   
809.500000	1.895009   
810.000000	1.744300   
810.500000	1.662153   
811.000000	1.643089   
811.500000	1.622870   
812.000000	1.672385   
812.500000	1.727430   
813.000000	1.720738   
813.500000	1.648512   
814.000000	1.615411   
814.500000	1.578821   
815.000000	1.530224   
815.500000	1.537814   
816.000000	1.548066   
816.500000	1.563595   
817.000000	1.562734   
817.500000	1.586068   
818.000000	1.637692   
818.500000	1.710979   
819.000000	1.857480   
819.500000	2.005990   
820.000000	2.143142   
820.500000	2.289979   
821.000000	2.351257   
821.500000	2.337552   
822.000000	2.276435   
822.500000	2.280007   
823.000000	2.277866   
823.500000	2.307888   
824.000000	2.453317   
824.500000	2.597144   
825.000000	2.679786   
825.500000	2.696920   
826.000000	2.712244   
826.500000	2.631085   
827.000000	2.476833   
827.500000	2.322205   
828.000000	2.155309   
828.500000	1.968246   
829.000000	1.772192   
829.500000	1.632589   
830.000000	1.509807   
830.500000	1.417287   
831.000000	1.361087   
831.500000	1.338595   
832.000000	1.334862   
832.500000	1.329779   
833.000000	1.319643   
833.500000	1.279220   
834.000000	1.216200   
834.500000	1.152139   
835.000000	1.054562   
835.500000	0.960413   
836.000000	0.906220   
836.500000	0.908972   
837.000000	0.951115   
837.500000	0.983699   
838.000000	1.045250   
838.500000	1.057443   
839.000000	1.015868   
839.500000	0.918565   
840.000000	0.833675   
840.500000	0.756170   
841.000000	0.681653   
841.500000	0.646204   
842.000000	0.629602   
842.500000	0.620330   
843.000000	0.601719   
843.500000	0.603640   
844.000000	0.644124   
844.500000	0.682205   
845.000000	0.712361   
845.500000	0.735771   
846.000000	0.752200   
846.500000	0.745419   
847.000000	0.687387   
847.500000	0.640686   
848.000000	0.589230   
848.500000	0.509818   
849.000000	0.447927   
849.500000	0.424293   
850.000000	0.459094   
850.500000	0.391866   
851.000000	0.350660   
851.500000	0.313554   
852.000000	0.237536   
852.500000	0.138532   
853.000000	0.068998   
853.500000	0.120766   
854.000000	0.112790   
854.500000	0.121141   
855.000000	0.164300   
855.500000	0.186621   
856.000000	0.180699   
856.500000	0.128126   
857.000000	0.125035   
857.500000	0.087196   
858.000000	0.039341   
858.500000	-0.011278  
859.000000	-0.031126  
859.500000	-0.016311  
860.000000	-0.001807  
860.500000	0.023307   
861.000000	0.064703   
861.500000	0.093198   
862.000000	0.090636   
862.500000	0.054847   
863.000000	0.028406   
863.500000	0.009176   
864.000000	-0.020730  
864.500000	-0.014619  
865.000000	-0.006610  
865.500000	-0.003243  
866.000000	-0.026948  
866.500000	-0.041168  
867.000000	-0.063751  
867.500000	-0.103011  
868.000000	-0.129810  
868.500000	-0.169922  
869.000000	-0.180653  
869.500000	-0.198098  
870.000000	-0.190380  
870.500000	-0.175031  
871.000000	-0.160951  
871.500000	-0.138066  
872.000000	-0.127894  
872.500000	-0.096894  
873.000000	-0.060808  
873.500000	-0.030415  
874.000000	-0.013306  
874.500000	0.002543   
875.000000	0.036823   
875.500000	0.062322   
876.000000	0.106025   
876.500000	0.141755   
877.000000	0.166068   
877.500000	0.165469   
878.000000	0.117131   
878.500000	0.070634   
879.000000	0.031526   
879.500000	0.011211   
880.000000	0.001109   
880.500000	0.010144   
881.000000	0.027402   
881.500000	0.012615   
882.000000	0.003380   
882.500000	-0.000838  
883.000000	0.003660   
883.500000	0.002037   
884.000000	-0.007397  
884.500000	-0.001326  
885.000000	-0.020408  
885.500000	-0.036881  
886.000000	-0.040816  
886.500000	-0.044120  
887.000000	-0.026705  
887.500000	-0.008721  
888.000000	0.005968   
888.500000	-0.004742  
889.000000	-0.007697  
889.500000	-0.021764  
890.000000	-0.042890  
890.500000	-0.063922  
891.000000	-0.048256  
891.500000	-0.005257  
892.000000	0.030974   
892.500000	0.075328   
893.000000	0.108382   
893.500000	0.108194   
894.000000	0.044092   
894.500000	-0.017758  
895.000000	-0.079827  
895.500000	-0.143168  
896.000000	-0.164259  
896.500000	-0.152380  

