PE FL                   SPECTRUM    ASCII       PEDS        1.60        
  -1
S013AB~1.SP
24/04/11
17:06:04.00
24/04/11
17:06:04.00
Jan

896.500000
1









LS55
405.00
5.00
5.00
SCAN
1
20
100
100
0
400
0
1
0
1
5
ON
736 405 
1 0 0
#HDR
-1
-1
#GR
NM

0.00002384185791015625
0.0
450.000000
0.500000
894
8
324.384092
-0.470999
#DATA
450.000000	-0.470999  
450.500000	-0.203998  
451.000000	0.007270   
451.500000	0.130955   
452.000000	0.159313   
452.500000	0.146411   
453.000000	0.131465   
453.500000	0.116042   
454.000000	0.075601   
454.500000	0.033701   
455.000000	0.010914   
455.500000	-0.024588  
456.000000	-0.040226  
456.500000	-0.014020  
457.000000	0.011810   
457.500000	0.012858   
458.000000	0.019923   
458.500000	0.026703   
459.000000	0.041278   
459.500000	0.087547   
460.000000	0.146402   
460.500000	0.143871   
461.000000	0.139682   
461.500000	0.145126   
462.000000	0.140936   
462.500000	0.122747   
463.000000	0.164432   
463.500000	0.234168   
464.000000	0.261237   
464.500000	0.265506   
465.000000	0.252213   
465.500000	0.225482   
466.000000	0.174461   
466.500000	0.157552   
467.000000	0.179296   
467.500000	0.209218   
468.000000	0.207964   
468.500000	0.153617   
469.000000	0.121534   
469.500000	0.106064   
470.000000	0.129658   
470.500000	0.141586   
471.000000	0.183230   
471.500000	0.226372   
472.000000	0.203322   
472.500000	0.151423   
473.000000	0.089209   
473.500000	0.076367   
474.000000	0.045612   
474.500000	0.011024   
475.000000	-0.029892  
475.500000	-0.098198  
476.000000	-0.138176  
476.500000	-0.177265  
477.000000	-0.080220  
477.500000	0.044155   
478.000000	0.137968   
478.500000	0.191742   
479.000000	0.179679   
479.500000	0.139901   
480.000000	0.042983   
480.500000	0.008170   
481.000000	-0.008202  
481.500000	-0.007269  
482.000000	-0.023168  
482.500000	-0.054346  
483.000000	-0.118582  
483.500000	-0.218398  
484.000000	-0.277636  
484.500000	-0.276230  
485.000000	-0.217107  
485.500000	-0.131031  
486.000000	0.017317   
486.500000	0.153619   
487.000000	0.281085   
487.500000	0.341909   
488.000000	0.339756   
488.500000	0.311250   
489.000000	0.211762   
489.500000	0.133669   
490.000000	0.095549   
490.500000	0.099378   
491.000000	0.110461   
491.500000	0.137231   
492.000000	0.196799   
492.500000	0.254823   
493.000000	0.271807   
493.500000	0.309172   
494.000000	0.311504   
494.500000	0.284699   
495.000000	0.262884   
495.500000	0.247441   
496.000000	0.275345   
496.500000	0.303909   
497.000000	0.397159   
497.500000	0.476589   
498.000000	0.538714   
498.500000	0.611400   
499.000000	0.654269   
499.500000	0.713346   
500.000000	0.761786   
500.500000	0.832270   
501.000000	0.857228   
501.500000	0.828372   
502.000000	0.772178   
502.500000	0.697688   
503.000000	0.644152   
503.500000	0.616170   
504.000000	0.665756   
504.500000	0.757421   
505.000000	0.817705   
505.500000	0.827187   
506.000000	0.803280   
506.500000	0.779291   
507.000000	0.724705   
507.500000	0.681163   
508.000000	0.718641   
508.500000	0.798593   
509.000000	0.879584   
509.500000	0.991304   
510.000000	1.142178   
510.500000	1.289397   
511.000000	1.400795   
511.500000	1.508291   
512.000000	1.616176   
512.500000	1.707738   
513.000000	1.779350   
513.500000	1.872354   
514.000000	1.975721   
514.500000	2.072326   
515.000000	2.129443   
515.500000	2.176666   
516.000000	2.211684   
516.500000	2.206597   
517.000000	2.216376   
517.500000	2.235495   
518.000000	2.268243   
518.500000	2.311851   
519.000000	2.364884   
519.500000	2.447222   
520.000000	2.507803   
520.500000	2.557163   
521.000000	2.635562   
521.500000	2.677779   
522.000000	2.706001   
522.500000	2.760901   
523.000000	2.838870   
523.500000	2.928510   
524.000000	3.039307   
524.500000	3.202912   
525.000000	3.393927   
525.500000	3.602311   
526.000000	3.840256   
526.500000	4.133725   
527.000000	4.407558   
527.500000	4.634500   
528.000000	4.790595   
528.500000	4.912183   
529.000000	4.935022   
529.500000	4.944966   
530.000000	5.074686   
530.500000	5.299387   
531.000000	5.619810   
531.500000	5.957942   
532.000000	6.352840   
532.500000	6.641200   
533.000000	6.808035   
533.500000	6.944404   
534.000000	7.093664   
534.500000	7.259578   
535.000000	7.392968   
535.500000	7.657144   
536.000000	7.934851   
536.500000	8.257495   
537.000000	8.610499   
537.500000	9.055037   
538.000000	9.625530   
538.500000	10.136372  
539.000000	10.645688  
539.500000	11.094597  
540.000000	11.454311  
540.500000	11.711487  
541.000000	11.822280  
541.500000	11.993437  
542.000000	12.071944  
542.500000	12.084664  
543.000000	12.118050  
543.500000	12.159094  
544.000000	12.181304  
544.500000	12.022419  
545.000000	11.824489  
545.500000	11.550252  
546.000000	11.193089  
546.500000	10.934276  
547.000000	10.824768  
547.500000	10.879853  
548.000000	10.987645  
548.500000	11.077283  
549.000000	11.054254  
549.500000	10.888758  
550.000000	10.626282  
550.500000	10.378729  
551.000000	10.161775  
551.500000	10.131690  
552.000000	10.184576  
552.500000	10.212686  
553.000000	10.319897  
553.500000	10.459241  
554.000000	10.629881  
554.500000	10.659343  
555.000000	10.699037  
555.500000	10.765378  
556.000000	10.796389  
556.500000	10.939628  
557.000000	11.180623  
557.500000	11.635317  
558.000000	12.097868  
558.500000	12.526782  
559.000000	12.849740  
559.500000	13.089712  
560.000000	13.202402  
560.500000	13.218109  
561.000000	13.363573  
561.500000	13.675148  
562.000000	14.153628  
562.500000	14.724035  
563.000000	15.442079  
563.500000	16.116627  
564.000000	16.691176  
564.500000	17.166513  
565.000000	17.600102  
565.500000	18.024322  
566.000000	18.528632  
566.500000	19.226257  
567.000000	19.963124  
567.500000	20.755205  
568.000000	21.581677  
568.500000	22.438213  
569.000000	23.128768  
569.500000	23.775684  
570.000000	24.370942  
570.500000	24.846714  
571.000000	25.256487  
571.500000	25.731586  
572.000000	26.345842  
572.500000	26.965018  
573.000000	27.631936  
573.500000	28.326372  
574.000000	28.913818  
574.500000	29.467205  
575.000000	30.176549  
575.500000	31.073077  
576.000000	31.968653  
576.500000	32.880842  
577.000000	33.807777  
577.500000	34.396564  
578.000000	34.765452  
578.500000	35.168808  
579.000000	35.737233  
579.500000	36.383035  
580.000000	37.183103  
580.500000	38.331235  
581.000000	39.332068  
581.500000	40.230812  
582.000000	40.995287  
582.500000	41.886274  
583.000000	42.745335  
583.500000	43.629654  
584.000000	44.820630  
584.500000	45.967176  
585.000000	47.162465  
585.500000	48.117565  
586.000000	49.129814  
586.500000	50.118768  
587.000000	51.068207  
587.500000	52.244473  
588.000000	53.540905  
588.500000	55.045589  
589.000000	56.564699  
589.500000	58.173178  
590.000000	59.778400  
590.500000	61.387901  
591.000000	63.092829  
591.500000	64.837328  
592.000000	66.494051  
592.500000	68.197256  
593.000000	69.770625  
593.500000	71.145131  
594.000000	72.504170  
594.500000	73.993467  
595.000000	75.713721  
595.500000	77.402565  
596.000000	79.280296  
596.500000	80.996159  
597.000000	82.522812  
597.500000	84.142988  
598.000000	85.926224  
598.500000	87.981224  
599.000000	90.280142  
599.500000	92.789712  
600.000000	95.057838  
600.500000	96.937768  
601.000000	98.786456  
601.500000	100.626306 
602.000000	102.564239 
602.500000	104.800630 
603.000000	107.411721 
603.500000	110.111398 
604.000000	112.682706 
604.500000	115.365092 
605.000000	118.118723 
605.500000	120.849345 
606.000000	123.530834 
606.500000	126.090679 
607.000000	128.690443 
607.500000	131.209636 
608.000000	133.837792 
608.500000	136.635927 
609.000000	139.743204 
609.500000	143.129586 
610.000000	146.466762 
610.500000	149.676643 
611.000000	152.748510 
611.500000	155.635595 
612.000000	158.329948 
612.500000	160.923346 
613.000000	163.843461 
613.500000	166.912632 
614.000000	170.183664 
614.500000	173.653630 
615.000000	177.531821 
615.500000	181.309480 
616.000000	184.869948 
616.500000	188.443521 
617.000000	191.975515 
617.500000	195.231384 
618.000000	198.508259 
618.500000	202.152200 
619.000000	205.736372 
619.500000	209.256243 
620.000000	212.817391 
620.500000	216.451515 
621.000000	220.153987 
621.500000	223.841248 
622.000000	227.789719 
622.500000	231.737350 
623.000000	235.733604 
623.500000	239.580564 
624.000000	243.215411 
624.500000	246.681888 
625.000000	249.939510 
625.500000	252.943313 
626.000000	255.814317 
626.500000	258.376860 
627.000000	261.146959 
627.500000	264.217191 
628.000000	267.512857 
628.500000	271.273593 
629.000000	274.950697 
629.500000	278.842352 
630.000000	282.354779 
630.500000	285.182291 
631.000000	287.996172 
631.500000	290.589157 
632.000000	293.245860 
632.500000	295.351625 
633.000000	298.320812 
633.500000	302.048647 
634.000000	305.175916 
634.500000	308.042152 
635.000000	310.851693 
635.500000	313.477888 
636.000000	314.582714 
636.500000	315.090831 
637.000000	316.145933 
637.500000	316.795515 
638.000000	316.934803 
638.500000	317.453237 
639.000000	318.342380 
639.500000	319.019359 
640.000000	319.730350 
640.500000	321.258413 
641.000000	322.878059 
641.500000	323.909853 
642.000000	324.371367 
642.500000	324.384092 
643.000000	323.769868 
643.500000	322.544651 
644.000000	321.516705 
644.500000	320.705265 
645.000000	320.256526 
645.500000	319.888627 
646.000000	319.855398 
646.500000	319.761311 
647.000000	319.389584 
647.500000	318.795875 
648.000000	317.704627 
648.500000	316.138610 
649.000000	313.968608 
649.500000	311.251237 
650.000000	308.387435 
650.500000	306.016287 
651.000000	304.028105 
651.500000	302.560823 
652.000000	301.345656 
652.500000	300.344948 
653.000000	298.998354 
653.500000	297.337005 
654.000000	295.228920 
654.500000	292.527040 
655.000000	289.453769 
655.500000	285.789508 
656.000000	281.606296 
656.500000	277.137808 
657.000000	272.908797 
657.500000	268.795538 
658.000000	264.712523 
658.500000	261.001990 
659.000000	257.413925 
659.500000	253.403679 
660.000000	249.118610 
660.500000	245.015274 
661.000000	241.075679 
661.500000	237.002799 
662.000000	233.161300 
662.500000	229.060139 
663.000000	224.464621 
663.500000	219.473309 
664.000000	214.295521 
664.500000	209.435064 
665.000000	204.772278 
665.500000	200.833254 
666.000000	197.078853 
666.500000	193.208207 
667.000000	189.175844 
667.500000	184.887933 
668.000000	180.278090 
668.500000	175.890486 
669.000000	172.034836 
669.500000	168.303029 
670.000000	164.468734 
670.500000	160.620497 
671.000000	156.605717 
671.500000	152.042567 
672.000000	147.487927 
672.500000	143.446356 
673.000000	139.462228 
673.500000	135.303506 
674.000000	131.307688 
674.500000	127.315048 
675.000000	123.192487 
675.500000	119.238690 
676.000000	116.016493 
676.500000	113.344884 
677.000000	110.631384 
677.500000	108.139434 
678.000000	105.489571 
678.500000	102.451846 
679.000000	99.082849  
679.500000	95.795332  
680.000000	92.799840  
680.500000	89.736975  
681.000000	87.054267  
681.500000	84.597703  
682.000000	82.176408  
682.500000	80.021395  
683.000000	78.147799  
683.500000	76.340406  
684.000000	74.334020  
684.500000	72.341434  
685.000000	70.252419  
685.500000	67.988573  
686.000000	65.935560  
686.500000	64.258608  
687.000000	62.653946  
687.500000	61.045098  
688.000000	59.424727  
688.500000	57.662183  
689.000000	55.508666  
689.500000	53.421410  
690.000000	51.549734  
690.500000	49.806640  
691.000000	48.366142  
691.500000	47.156389  
692.000000	46.141844  
692.500000	44.945168  
693.000000	43.717354  
693.500000	42.522578  
694.000000	41.430549  
694.500000	40.292866  
695.000000	39.201864  
695.500000	38.357688  
696.000000	37.527435  
696.500000	36.651213  
697.000000	35.762586  
697.500000	35.009105  
698.000000	34.053220  
698.500000	33.005530  
699.000000	32.009645  
699.500000	31.035424  
700.000000	30.032560  
700.500000	28.951250  
701.000000	28.031894  
701.500000	27.180526  
702.000000	26.436972  
702.500000	25.832651  
703.000000	25.289875  
703.500000	24.830897  
704.000000	24.327413  
704.500000	23.712376  
705.000000	23.039625  
705.500000	22.456129  
706.000000	22.032421  
706.500000	21.703358  
707.000000	21.500582  
707.500000	21.285949  
708.000000	20.954326  
708.500000	20.456020  
709.000000	19.831871  
709.500000	19.133168  
710.000000	18.502571  
710.500000	17.973326  
711.000000	17.550415  
711.500000	17.216617  
712.000000	16.895881  
712.500000	16.700966  
713.000000	16.382456  
713.500000	16.087673  
714.000000	15.824461  
714.500000	15.566779  
715.000000	15.347480  
715.500000	15.024849  
716.000000	14.812534  
716.500000	14.497057  
717.000000	14.257602  
717.500000	14.047795  
718.000000	13.859564  
718.500000	13.716972  
719.000000	13.412857  
719.500000	13.139768  
720.000000	12.813263  
720.500000	12.512012  
721.000000	12.269831  
721.500000	12.050597  
722.000000	11.873820  
722.500000	11.688526  
723.000000	11.502619  
723.500000	11.337205  
724.000000	11.188356  
724.500000	11.006949  
725.000000	10.825896  
725.500000	10.615985  
726.000000	10.390105  
726.500000	10.114784  
727.000000	9.961834   
727.500000	9.869762   
728.000000	9.774051   
728.500000	9.649031   
729.000000	9.500241   
729.500000	9.338988   
730.000000	9.071129   
730.500000	8.805213   
731.000000	8.564510   
731.500000	8.348456   
732.000000	8.173478   
732.500000	8.065883   
733.000000	8.059408   
733.500000	8.016641   
734.000000	7.975959   
734.500000	7.902942   
735.000000	7.795864   
735.500000	7.693139   
736.000000	7.605252   
736.500000	7.631682   
737.000000	7.596708   
737.500000	7.512656   
738.000000	7.367226   
738.500000	7.161051   
739.000000	6.946113   
739.500000	6.699884   
740.000000	6.601085   
740.500000	6.508764   
741.000000	6.518807   
741.500000	6.523304   
742.000000	6.523224   
742.500000	6.498682   
743.000000	6.442513   
743.500000	6.414838   
744.000000	6.277066   
744.500000	6.207632   
745.000000	6.085185   
745.500000	5.930788   
746.000000	5.725775   
746.500000	5.561128   
747.000000	5.496923   
747.500000	5.418909   
748.000000	5.459818   
748.500000	5.541198   
749.000000	5.666404   
749.500000	5.678025   
750.000000	5.573866   
750.500000	5.476131   
751.000000	5.337079   
751.500000	5.201031   
752.000000	5.061267   
752.500000	4.974382   
753.000000	4.931549   
753.500000	4.888619   
754.000000	4.910380   
754.500000	4.970395   
755.000000	5.018641   
755.500000	5.016619   
756.000000	4.913074   
756.500000	4.779486   
757.000000	4.611400   
757.500000	4.524371   
758.000000	4.527124   
758.500000	4.621081   
759.000000	4.801300   
759.500000	4.925502   
760.000000	4.926551   
760.500000	4.781875   
761.000000	4.583794   
761.500000	4.358166   
762.000000	4.183046   
762.500000	4.106150   
763.000000	4.130465   
763.500000	4.195053   
764.000000	4.220090   
764.500000	4.277565   
765.000000	4.309545   
765.500000	4.333042   
766.000000	4.303825   
766.500000	4.287482   
767.000000	4.218358   
767.500000	4.069320   
768.000000	3.911131   
768.500000	3.787341   
769.000000	3.710551   
769.500000	3.641701   
770.000000	3.657998   
770.500000	3.699437   
771.000000	3.709903   
771.500000	3.681022   
772.000000	3.657222   
772.500000	3.670372   
773.000000	3.659037   
773.500000	3.691137   
774.000000	3.738569   
774.500000	3.773849   
775.000000	3.778888   
775.500000	3.738456   
776.000000	3.643077   
776.500000	3.520346   
777.000000	3.388343   
777.500000	3.281923   
778.000000	3.185079   
778.500000	3.174795   
779.000000	3.180510   
779.500000	3.196152   
780.000000	3.234259   
780.500000	3.262120   
781.000000	3.256684   
781.500000	3.191723   
782.000000	3.132417   
782.500000	3.068153   
783.000000	3.008640   
783.500000	2.990883   
784.000000	3.023729   
784.500000	3.093489   
785.000000	3.146987   
785.500000	3.197962   
786.000000	3.205022   
786.500000	3.172762   
787.000000	3.109246   
787.500000	3.016421   
788.000000	2.929897   
788.500000	2.844423   
789.000000	2.778385   
789.500000	2.756259   
790.000000	2.789204   
790.500000	2.876426   
791.000000	2.968506   
791.500000	3.075270   
792.000000	3.120185   
792.500000	3.076866   
793.000000	2.980452   
793.500000	2.850964   
794.000000	2.718564   
794.500000	2.633623   
795.000000	2.588749   
795.500000	2.563213   
796.000000	2.527304   
796.500000	2.513430   
797.000000	2.547263   
797.500000	2.540658   
798.000000	2.543018   
798.500000	2.505562   
799.000000	2.467884   
799.500000	2.413636   
800.000000	2.392929   
800.500000	2.437179   
801.000000	2.434367   
801.500000	2.414484   
802.000000	2.309721   
802.500000	2.179118   
803.000000	2.062927   
803.500000	2.035786   
804.000000	2.123621   
804.500000	2.266100   
805.000000	2.414966   
805.500000	2.485376   
806.000000	2.446760   
806.500000	2.318820   
807.000000	2.181614   
807.500000	2.066823   
808.000000	1.988176   
808.500000	1.907252   
809.000000	1.876775   
809.500000	1.848866   
810.000000	1.842795   
810.500000	1.835638   
811.000000	1.856608   
811.500000	1.902866   
812.000000	1.893979   
812.500000	1.928296   
813.000000	1.944753   
813.500000	1.960178   
814.000000	1.931016   
814.500000	1.897428   
815.000000	1.900031   
815.500000	1.850463   
816.000000	1.851458   
816.500000	1.848666   
817.000000	1.845998   
817.500000	1.850410   
818.000000	1.817456   
818.500000	1.863985   
819.000000	1.894233   
819.500000	1.946018   
820.000000	2.021048   
820.500000	2.063582   
821.000000	2.134617   
821.500000	2.155411   
822.000000	2.247773   
822.500000	2.383528   
823.000000	2.543452   
823.500000	2.692083   
824.000000	2.733972   
824.500000	2.695287   
825.000000	2.600246   
825.500000	2.485096   
826.000000	2.380328   
826.500000	2.349441   
827.000000	2.350935   
827.500000	2.330879   
828.000000	2.229486   
828.500000	2.160079   
829.000000	2.095985   
829.500000	1.978738   
830.000000	1.912339   
830.500000	1.832118   
831.000000	1.745630   
831.500000	1.579723   
832.000000	1.398113   
832.500000	1.269361   
833.000000	1.129261   
833.500000	1.059797   
834.000000	1.025484   
834.500000	1.020651   
835.000000	1.035014   
835.500000	1.030207   
836.000000	1.030569   
836.500000	0.991786   
837.000000	0.963628   
837.500000	0.937402   
838.000000	0.896395   
838.500000	0.885578   
839.000000	0.890226   
839.500000	0.899738   
840.000000	0.898985   
840.500000	0.933289   
841.000000	0.961406   
841.500000	0.966079   
842.000000	0.954619   
842.500000	0.920677   
843.000000	0.849018   
843.500000	0.752259   
844.000000	0.699599   
844.500000	0.649014   
845.000000	0.631283   
845.500000	0.632727   
846.000000	0.612115   
846.500000	0.595085   
847.000000	0.545153   
847.500000	0.496083   
848.000000	0.423040   
848.500000	0.400053   
849.000000	0.388942   
849.500000	0.329282   
850.000000	0.305773   
850.500000	0.282116   
851.000000	0.257185   
851.500000	0.199538   
852.000000	0.198903   
852.500000	0.250686   
853.000000	0.253983   
853.500000	0.285508   
854.000000	0.303144   
854.500000	0.309595   
855.000000	0.247170   
855.500000	0.152309   
856.000000	0.116434   
856.500000	0.076072   
857.000000	0.050595   
857.500000	0.058493   
858.000000	0.130109   
858.500000	0.171231   
859.000000	0.168165   
859.500000	0.164235   
860.000000	0.145313   
860.500000	0.107046   
861.000000	0.060200   
861.500000	0.063324   
862.000000	0.055890   
862.500000	0.050410   
863.000000	0.019628   
863.500000	-0.017254  
864.000000	-0.061217  
864.500000	-0.101818  
865.000000	-0.111972  
865.500000	-0.128408  
866.000000	-0.092847  
866.500000	-0.049243  
867.000000	0.004048   
867.500000	0.053020   
868.000000	0.109298   
868.500000	0.138261   
869.000000	0.133768   
869.500000	0.111862   
870.000000	0.071441   
870.500000	0.033627   
871.000000	-0.005723  
871.500000	-0.036163  
872.000000	-0.068936  
872.500000	-0.084113  
873.000000	-0.107350  
873.500000	-0.129840  
874.000000	-0.140545  
874.500000	-0.140959  
875.000000	-0.145636  
875.500000	-0.160617  
876.000000	-0.158372  
876.500000	-0.149345  
877.000000	-0.146684  
877.500000	-0.163979  
878.000000	-0.168055  
878.500000	-0.170803  
879.000000	-0.185421  
879.500000	-0.188384  
880.000000	-0.150623  
880.500000	-0.121389  
881.000000	-0.100846  
881.500000	-0.089771  
882.000000	-0.073055  
882.500000	-0.078627  
883.000000	-0.104636  
883.500000	-0.102191  
884.000000	-0.086855  
884.500000	-0.050285  
885.000000	-0.039250  
885.500000	-0.013992  
886.000000	0.007215   
886.500000	0.012589   
887.000000	0.003107   
887.500000	-0.024894  
888.000000	0.006059   
888.500000	0.017562   
889.000000	0.028437   
889.500000	0.043682   
890.000000	0.055682   
890.500000	0.015875   
891.000000	-0.068168  
891.500000	-0.109820  
892.000000	-0.144007  
892.500000	-0.173862  
893.000000	-0.167938  
893.500000	-0.106064  
894.000000	-0.046102  
894.500000	-0.008460  
895.000000	0.012734   
895.500000	0.021378   
896.000000	-0.017831  
896.500000	-0.078432  

