PE FL                   SPECTRUM    ASCII       PEDS        1.60        
  -1
S00BBF~1.SP
24/04/11
16:56:05.00
24/04/11
16:56:05.00
Jan

896.500000
1









LS55
405.00
5.00
5.00
SCAN
1
20
100
100
0
400
0
1
0
1
5
ON
736 405 
1 0 0
#HDR
-1
-1
#GR
NM

0.00002384185791015625
0.0
450.000000
0.500000
894
8
322.013191
-0.202972
#DATA
450.000000	0.433000   
450.500000	0.139675   
451.000000	-0.085578  
451.500000	-0.202972  
452.000000	-0.174658  
452.500000	-0.068617  
453.000000	0.055795   
453.500000	0.172226   
454.000000	0.234254   
454.500000	0.276964   
455.000000	0.302174   
455.500000	0.342632   
456.000000	0.370641   
456.500000	0.329961   
457.000000	0.264762   
457.500000	0.151094   
458.000000	0.021818   
458.500000	-0.052846  
459.000000	-0.037523  
459.500000	0.031851   
460.000000	0.090003   
460.500000	0.153328   
461.000000	0.152730   
461.500000	0.085311   
462.000000	-0.007215  
462.500000	-0.046554  
463.000000	-0.059239  
463.500000	-0.053779  
464.000000	-0.013671  
464.500000	0.043499   
465.000000	0.095335   
465.500000	0.115886   
466.000000	0.160415   
466.500000	0.165697   
467.000000	0.162003   
467.500000	0.152823   
468.000000	0.133005   
468.500000	0.094857   
469.000000	0.009903   
469.500000	-0.056751  
470.000000	-0.136244  
470.500000	-0.144927  
471.000000	-0.111493  
471.500000	0.002100   
472.000000	0.122512   
472.500000	0.173482   
473.000000	0.156714   
473.500000	0.059102   
474.000000	-0.047120  
474.500000	-0.150551  
475.000000	-0.184846  
475.500000	-0.149846  
476.000000	-0.084330  
476.500000	-0.015805  
477.000000	0.024172   
477.500000	0.077083   
478.000000	0.124161   
478.500000	0.150487   
479.000000	0.146974   
479.500000	0.125769   
480.000000	0.070918   
480.500000	0.001775   
481.000000	-0.038358  
481.500000	-0.034858  
482.000000	-0.011996  
482.500000	0.035215   
483.000000	0.076037   
483.500000	0.085402   
484.000000	0.075426   
484.500000	0.028493   
485.000000	-0.035790  
485.500000	-0.103697  
486.000000	-0.102747  
486.500000	-0.074367  
487.000000	-0.027769  
487.500000	0.079252   
488.000000	0.187046   
488.500000	0.280567   
489.000000	0.301317   
489.500000	0.328738   
490.000000	0.285686   
490.500000	0.213860   
491.000000	0.182593   
491.500000	0.169341   
492.000000	0.201283   
492.500000	0.246508   
493.000000	0.337692   
493.500000	0.397222   
494.000000	0.414359   
494.500000	0.345205   
495.000000	0.207432   
495.500000	0.061879   
496.000000	-0.059408  
496.500000	-0.109226  
497.000000	-0.075500  
497.500000	0.060063   
498.000000	0.226116   
498.500000	0.381990   
499.000000	0.504272   
499.500000	0.594539   
500.000000	0.648918   
500.500000	0.675512   
501.000000	0.735636   
501.500000	0.806526   
502.000000	0.846686   
502.500000	0.850159   
503.000000	0.839196   
503.500000	0.830120   
504.000000	0.811541   
504.500000	0.807235   
505.000000	0.820053   
505.500000	0.837560   
506.000000	0.832536   
506.500000	0.787063   
507.000000	0.763632   
507.500000	0.743289   
508.000000	0.745582   
508.500000	0.778784   
509.000000	0.848476   
509.500000	0.970066   
510.000000	1.080250   
510.500000	1.238823   
511.000000	1.363764   
511.500000	1.479328   
512.000000	1.556352   
512.500000	1.612723   
513.000000	1.649226   
513.500000	1.654985   
514.000000	1.724782   
514.500000	1.791610   
515.000000	1.885569   
515.500000	1.986680   
516.000000	2.108046   
516.500000	2.236135   
517.000000	2.351493   
517.500000	2.461970   
518.000000	2.517237   
518.500000	2.560109   
519.000000	2.575103   
519.500000	2.571072   
520.000000	2.580551   
520.500000	2.602448   
521.000000	2.578773   
521.500000	2.540782   
522.000000	2.518576   
522.500000	2.539562   
523.000000	2.544556   
523.500000	2.634294   
524.000000	2.796072   
524.500000	2.986051   
525.000000	3.228341   
525.500000	3.458434   
526.000000	3.673745   
526.500000	3.843792   
527.000000	4.010337   
527.500000	4.151157   
528.000000	4.286749   
528.500000	4.450116   
529.000000	4.668853   
529.500000	4.917998   
530.000000	5.161435   
530.500000	5.381463   
531.000000	5.523682   
531.500000	5.650332   
532.000000	5.705408   
532.500000	5.879061   
533.000000	6.099591   
533.500000	6.336551   
534.000000	6.596029   
534.500000	6.828202   
535.000000	7.080235   
535.500000	7.213820   
536.000000	7.397870   
536.500000	7.583909   
537.000000	7.882486   
537.500000	8.311578   
538.000000	8.836166   
538.500000	9.419879   
539.000000	9.969150   
539.500000	10.529883  
540.000000	10.945408  
540.500000	11.315871  
541.000000	11.697662  
541.500000	12.052632  
542.000000	12.303332  
542.500000	12.473495  
543.000000	12.510890  
543.500000	12.309628  
544.000000	12.029205  
544.500000	11.751727  
545.000000	11.637851  
545.500000	11.615749  
546.000000	11.677890  
546.500000	11.724831  
547.000000	11.693784  
547.500000	11.623576  
548.000000	11.429421  
548.500000	11.125847  
549.000000	10.843432  
549.500000	10.597807  
550.000000	10.343230  
550.500000	10.141606  
551.000000	10.078630  
551.500000	10.061521  
552.000000	10.016604  
552.500000	10.033215  
553.000000	10.082352  
553.500000	10.071473  
554.000000	10.056038  
554.500000	10.083849  
555.000000	10.220204  
555.500000	10.415525  
556.000000	10.651640  
556.500000	10.941981  
557.000000	11.195948  
557.500000	11.437625  
558.000000	11.580270  
558.500000	11.649476  
559.000000	11.694734  
559.500000	11.827571  
560.000000	12.080311  
560.500000	12.448426  
561.000000	12.924374  
561.500000	13.455552  
562.000000	14.071805  
562.500000	14.585712  
563.000000	15.108987  
563.500000	15.577289  
564.000000	16.043634  
564.500000	16.512781  
565.000000	17.061671  
565.500000	17.761660  
566.000000	18.505155  
566.500000	19.352506  
567.000000	20.115803  
567.500000	20.815795  
568.000000	21.398636  
568.500000	21.891335  
569.000000	22.248955  
569.500000	22.658597  
570.000000	23.166734  
570.500000	23.679382  
571.000000	24.198419  
571.500000	24.737630  
572.000000	25.305365  
572.500000	25.858218  
573.000000	26.499423  
573.500000	27.249654  
574.000000	28.081695  
574.500000	28.964345  
575.000000	29.769599  
575.500000	30.496189  
576.000000	31.150159  
576.500000	31.821979  
577.000000	32.520671  
577.500000	33.261359  
578.000000	34.050786  
578.500000	34.735254  
579.000000	35.341883  
579.500000	35.917124  
580.000000	36.559747  
580.500000	37.247291  
581.000000	37.988875  
581.500000	38.747365  
582.000000	39.432580  
582.500000	40.013090  
583.000000	40.661207  
583.500000	41.616974  
584.000000	42.784317  
584.500000	44.170090  
585.000000	45.749974  
585.500000	47.541621  
586.000000	49.085556  
586.500000	50.477482  
587.000000	51.819688  
587.500000	52.943124  
588.000000	53.812061  
588.500000	54.653146  
589.000000	55.649482  
589.500000	56.569454  
590.000000	57.702124  
590.500000	59.298035  
591.000000	61.059107  
591.500000	62.638621  
592.000000	64.182528  
592.500000	65.849523  
593.000000	67.254903  
593.500000	68.631673  
594.000000	70.234152  
594.500000	71.936504  
595.000000	73.587384  
595.500000	75.309586  
596.000000	77.220230  
596.500000	78.886910  
597.000000	80.475912  
597.500000	82.206447  
598.000000	84.088074  
598.500000	85.955732  
599.000000	87.846562  
599.500000	90.001152  
600.000000	92.171282  
600.500000	94.306703  
601.000000	96.427992  
601.500000	98.532597  
602.000000	100.430343 
602.500000	102.305987 
603.000000	104.268667 
603.500000	106.461795 
604.000000	108.824719 
604.500000	111.234072 
605.000000	113.800204 
605.500000	116.304048 
606.000000	118.778632 
606.500000	121.065944 
607.000000	123.410755 
607.500000	126.002588 
608.000000	128.911936 
608.500000	132.037504 
609.000000	135.201591 
609.500000	138.475452 
610.000000	141.539307 
610.500000	144.251430 
611.000000	146.900350 
611.500000	149.737688 
612.000000	152.760539 
612.500000	156.000259 
613.000000	159.548979 
613.500000	163.082237 
614.000000	166.459539 
614.500000	169.524955 
615.000000	172.482526 
615.500000	175.383584 
616.000000	178.390742 
616.500000	181.849899 
617.000000	185.459411 
617.500000	189.384487 
618.000000	193.421740 
618.500000	197.472604 
619.000000	201.227647 
619.500000	204.698215 
620.000000	208.015502 
620.500000	210.977061 
621.000000	213.949128 
621.500000	216.853519 
622.000000	220.070168 
622.500000	223.157165 
623.000000	226.416218 
623.500000	229.931682 
624.000000	233.768055 
624.500000	237.648892 
625.000000	241.457322 
625.500000	245.714135 
626.000000	249.769667 
626.500000	253.272786 
627.000000	256.500489 
627.500000	260.065270 
628.000000	263.367836 
628.500000	266.648128 
629.000000	270.386658 
629.500000	274.605372 
630.000000	278.398443 
630.500000	281.718810 
631.000000	284.961909 
631.500000	287.565200 
632.000000	289.877959 
632.500000	292.281654 
633.000000	295.129630 
633.500000	297.868599 
634.000000	300.426480 
634.500000	302.837940 
635.000000	304.416144 
635.500000	305.562808 
636.000000	306.906024 
636.500000	308.502458 
637.000000	310.420953 
637.500000	312.788048 
638.000000	315.423115 
638.500000	317.775460 
639.000000	319.575406 
639.500000	321.007972 
640.000000	322.013191 
640.500000	321.996384 
641.000000	321.617571 
641.500000	320.981560 
642.000000	320.430725 
642.500000	320.492890 
643.000000	320.694907 
643.500000	321.328009 
644.000000	321.446884 
644.500000	321.394929 
645.000000	320.756445 
645.500000	319.831532 
646.000000	319.420660 
646.500000	318.861211 
647.000000	318.512825 
647.500000	317.973630 
648.000000	317.020717 
648.500000	315.531864 
649.000000	313.870096 
649.500000	312.396640 
650.000000	310.793985 
650.500000	308.880064 
651.000000	307.102339 
651.500000	305.117671 
652.000000	302.979643 
652.500000	300.997378 
653.000000	299.125011 
653.500000	297.269150 
654.000000	294.909959 
654.500000	292.004341 
655.000000	288.984775 
655.500000	285.723059 
656.000000	282.613155 
656.500000	279.679565 
657.000000	276.856359 
657.500000	273.828293 
658.000000	270.219858 
658.500000	266.456209 
659.000000	262.446309 
659.500000	258.387855 
660.000000	254.764812 
660.500000	251.290152 
661.000000	247.798484 
661.500000	243.978152 
662.000000	239.776636 
662.500000	234.969504 
663.000000	229.694539 
663.500000	224.774358 
664.000000	220.129467 
664.500000	215.806172 
665.000000	212.024662 
665.500000	208.512528 
666.000000	205.024233 
666.500000	201.284998 
667.000000	197.310244 
667.500000	192.792085 
668.000000	188.181395 
668.500000	183.406402 
669.000000	178.511033 
669.500000	173.535755 
670.000000	168.814777 
670.500000	164.149682 
671.000000	159.599962 
671.500000	155.772807 
672.000000	152.185708 
672.500000	148.957990 
673.000000	145.596682 
673.500000	142.318393 
674.000000	138.721027 
674.500000	134.714089 
675.000000	130.901534 
675.500000	126.884437 
676.000000	122.962267 
676.500000	119.181586 
677.000000	115.729842 
677.500000	112.458001 
678.000000	109.401860 
678.500000	106.810035 
679.000000	104.499781 
679.500000	102.045200 
680.000000	99.247499  
680.500000	96.207560  
681.000000	93.101534  
681.500000	89.938962  
682.000000	87.027551  
682.500000	84.849998  
683.000000	83.051406  
683.500000	81.264320  
684.000000	79.354662  
684.500000	77.428103  
685.000000	75.143634  
685.500000	72.544354  
686.000000	70.068918  
686.500000	67.822654  
687.000000	65.754690  
687.500000	63.775129  
688.000000	61.930137  
688.500000	59.968087  
689.000000	58.166042  
689.500000	56.480222  
690.000000	54.865324  
690.500000	53.354756  
691.000000	51.896712  
691.500000	50.446393  
692.000000	48.856198  
692.500000	47.505541  
693.000000	46.353059  
693.500000	45.283102  
694.000000	44.262385  
694.500000	43.261313  
695.000000	42.067361  
695.500000	40.643901  
696.000000	39.304248  
696.500000	38.116218  
697.000000	36.989528  
697.500000	36.092348  
698.000000	35.352300  
698.500000	34.473287  
699.000000	33.450948  
699.500000	32.327389  
700.000000	31.297675  
700.500000	30.228938  
701.000000	29.276267  
701.500000	28.571187  
702.000000	27.960018  
702.500000	27.454589  
703.000000	26.930651  
703.500000	26.423085  
704.000000	25.836467  
704.500000	25.229172  
705.000000	24.559875  
705.500000	23.911886  
706.000000	23.310458  
706.500000	22.782014  
707.000000	22.342578  
707.500000	21.944187  
708.000000	21.549328  
708.500000	21.118651  
709.000000	20.537730  
709.500000	19.911458  
710.000000	19.286087  
710.500000	18.812851  
711.000000	18.408274  
711.500000	17.965463  
712.000000	17.550129  
712.500000	17.073727  
713.000000	16.740886  
713.500000	16.376322  
714.000000	16.220988  
714.500000	16.220649  
715.000000	16.103109  
715.500000	15.879775  
716.000000	15.483764  
716.500000	15.048241  
717.000000	14.519649  
717.500000	14.056730  
718.000000	13.740758  
718.500000	13.458144  
719.000000	13.095858  
719.500000	12.732118  
720.000000	12.469129  
720.500000	12.260196  
721.000000	12.163324  
721.500000	12.114448  
722.000000	12.039697  
722.500000	11.896452  
723.000000	11.789311  
723.500000	11.690107  
724.000000	11.613784  
724.500000	11.627782  
725.000000	11.549135  
725.500000	11.311764  
726.000000	10.866265  
726.500000	10.355007  
727.000000	9.853975   
727.500000	9.407484   
728.000000	9.209734   
728.500000	9.116296   
729.000000	9.174528   
729.500000	9.192309   
730.000000	9.210359   
730.500000	9.234319   
731.000000	9.171207   
731.500000	9.096821   
732.000000	8.945497   
732.500000	8.806953   
733.000000	8.650166   
733.500000	8.417920   
734.000000	8.232313   
734.500000	8.064586   
735.000000	7.906244   
735.500000	7.798456   
736.000000	7.715521   
736.500000	7.713990   
737.000000	7.703803   
737.500000	7.694150   
738.000000	7.648653   
738.500000	7.425311   
739.000000	7.188860   
739.500000	6.918495   
740.000000	6.727155   
740.500000	6.671918   
741.000000	6.636890   
741.500000	6.667565   
742.000000	6.660278   
742.500000	6.604153   
743.000000	6.449035   
743.500000	6.235784   
744.000000	6.087564   
744.500000	5.989916   
745.000000	6.005818   
745.500000	6.109879   
746.000000	6.247918   
746.500000	6.347296   
747.000000	6.336500   
747.500000	6.218142   
748.000000	6.056263   
748.500000	5.903905   
749.000000	5.852957   
749.500000	5.893615   
750.000000	5.953356   
750.500000	5.966248   
751.000000	5.833191   
751.500000	5.611055   
752.000000	5.338782   
752.500000	5.181473   
753.000000	5.084833   
753.500000	5.056858   
754.000000	5.063751   
754.500000	5.090656   
755.000000	5.090894   
755.500000	4.992465   
756.000000	4.922244   
756.500000	4.835152   
757.000000	4.736745   
757.500000	4.617703   
758.000000	4.556254   
758.500000	4.574534   
759.000000	4.616499   
759.500000	4.715513   
760.000000	4.817397   
760.500000	4.898541   
761.000000	4.913077   
761.500000	4.872897   
762.000000	4.830434   
762.500000	4.735821   
763.000000	4.589591   
763.500000	4.464346   
764.000000	4.399736   
764.500000	4.405105   
765.000000	4.382480   
765.500000	4.393133   
766.000000	4.384801   
766.500000	4.286486   
767.000000	4.091341   
767.500000	3.876539   
768.000000	3.759667   
768.500000	3.637020   
769.000000	3.560814   
769.500000	3.537562   
770.000000	3.533725   
770.500000	3.471191   
771.000000	3.352940   
771.500000	3.308679   
772.000000	3.268814   
772.500000	3.243055   
773.000000	3.256495   
773.500000	3.320706   
774.000000	3.407654   
774.500000	3.451315   
775.000000	3.507853   
775.500000	3.544467   
776.000000	3.574608   
776.500000	3.572710   
777.000000	3.530072   
777.500000	3.471512   
778.000000	3.354667   
778.500000	3.246382   
779.000000	3.148990   
779.500000	3.084352   
780.000000	3.091667   
780.500000	3.129766   
781.000000	3.189951   
781.500000	3.191322   
782.000000	3.161903   
782.500000	3.103319   
783.000000	3.004378   
783.500000	2.956671   
784.000000	2.971202   
784.500000	3.006261   
785.000000	3.057552   
785.500000	3.095376   
786.000000	3.108458   
786.500000	3.039564   
787.000000	2.913007   
787.500000	2.820456   
788.000000	2.714179   
788.500000	2.641474   
789.000000	2.629137   
789.500000	2.670584   
790.000000	2.745294   
790.500000	2.784788   
791.000000	2.883519   
791.500000	2.895423   
792.000000	2.818341   
792.500000	2.727753   
793.000000	2.644701   
793.500000	2.583717   
794.000000	2.521259   
794.500000	2.567695   
795.000000	2.639608   
795.500000	2.670515   
796.000000	2.713961   
796.500000	2.752660   
797.000000	2.766218   
797.500000	2.760617   
798.000000	2.796089   
798.500000	2.824777   
799.000000	2.804768   
799.500000	2.770181   
800.000000	2.730046   
800.500000	2.661209   
801.000000	2.607552   
801.500000	2.561922   
802.000000	2.531734   
802.500000	2.492990   
803.000000	2.518098   
803.500000	2.551562   
804.000000	2.557246   
804.500000	2.572684   
805.000000	2.593679   
805.500000	2.561645   
806.000000	2.488998   
806.500000	2.382170   
807.000000	2.246612   
807.500000	2.071484   
808.000000	1.918604   
808.500000	1.814610   
809.000000	1.758038   
809.500000	1.765549   
810.000000	1.850382   
810.500000	1.964504   
811.000000	2.016133   
811.500000	2.021708   
812.000000	2.011330   
812.500000	1.954539   
813.000000	1.886072   
813.500000	1.848755   
814.000000	1.856632   
814.500000	1.810074   
815.000000	1.728628   
815.500000	1.677764   
816.000000	1.644717   
816.500000	1.605068   
817.000000	1.584567   
817.500000	1.660584   
818.000000	1.771732   
818.500000	1.848656   
819.000000	1.959554   
819.500000	2.081820   
820.000000	2.202205   
820.500000	2.238133   
821.000000	2.275669   
821.500000	2.310586   
822.000000	2.333278   
822.500000	2.356122   
823.000000	2.407575   
823.500000	2.497040   
824.000000	2.526230   
824.500000	2.554938   
825.000000	2.568048   
825.500000	2.601116   
826.000000	2.594029   
826.500000	2.631115   
827.000000	2.601846   
827.500000	2.465298   
828.000000	2.298779   
828.500000	2.107282   
829.000000	1.943905   
829.500000	1.752426   
830.000000	1.657083   
830.500000	1.540053   
831.000000	1.377478   
831.500000	1.216096   
832.000000	1.082732   
832.500000	1.032697   
833.000000	0.994424   
833.500000	1.071230   
834.000000	1.159833   
834.500000	1.213107   
835.000000	1.245519   
835.500000	1.255144   
836.000000	1.239693   
836.500000	1.210962   
837.000000	1.163306   
837.500000	1.092972   
838.000000	0.993207   
838.500000	0.908315   
839.000000	0.848070   
839.500000	0.807890   
840.000000	0.809417   
840.500000	0.803469   
841.000000	0.772022   
841.500000	0.726369   
842.000000	0.674875   
842.500000	0.638944   
843.000000	0.597003   
843.500000	0.595779   
844.000000	0.601454   
844.500000	0.566155   
845.000000	0.522966   
845.500000	0.494183   
846.000000	0.497508   
846.500000	0.487441   
847.000000	0.475109   
847.500000	0.458994   
848.000000	0.400747   
848.500000	0.295530   
849.000000	0.210714   
849.500000	0.192953   
850.000000	0.202619   
850.500000	0.261224   
851.000000	0.309636   
851.500000	0.351001   
852.000000	0.324649   
852.500000	0.309881   
853.000000	0.303565   
853.500000	0.291881   
854.000000	0.329899   
854.500000	0.331183   
855.000000	0.322922   
855.500000	0.233875   
856.000000	0.157135   
856.500000	0.084647   
857.000000	0.015936   
857.500000	0.016706   
858.000000	0.035133   
858.500000	0.113729   
859.000000	0.130823   
859.500000	0.130367   
860.000000	0.105033   
860.500000	0.040526   
861.000000	-0.032871  
861.500000	-0.115333  
862.000000	-0.123782  
862.500000	-0.113231  
863.000000	-0.061055  
863.500000	0.012166   
864.000000	0.085218   
864.500000	0.164693   
865.000000	0.201901   
865.500000	0.230795   
866.000000	0.208541   
866.500000	0.171009   
867.000000	0.105745   
867.500000	0.020128   
868.000000	-0.038497  
868.500000	-0.051378  
869.000000	-0.033591  
869.500000	-0.037807  
870.000000	-0.043871  
870.500000	-0.044604  
871.000000	-0.093601  
871.500000	-0.133324  
872.000000	-0.136641  
872.500000	-0.098458  
873.000000	-0.063410  
873.500000	-0.035166  
874.000000	-0.001061  
874.500000	-0.013237  
875.000000	-0.029432  
875.500000	-0.034801  
876.000000	-0.025267  
876.500000	-0.027270  
877.000000	-0.034382  
877.500000	-0.038194  
878.000000	-0.078296  
878.500000	-0.090378  
879.000000	-0.080053  
879.500000	-0.035105  
880.000000	0.012205   
880.500000	0.057870   
881.000000	0.088291   
881.500000	0.067231   
882.000000	0.047406   
882.500000	0.001705   
883.000000	-0.011241  
883.500000	-0.000866  
884.000000	0.012135   
884.500000	0.030116   
885.000000	0.023439   
885.500000	0.035419   
886.000000	-0.004176  
886.500000	-0.049922  
887.000000	-0.080432  
887.500000	-0.108653  
888.000000	-0.124371  
888.500000	-0.128508  
889.000000	-0.097421  
889.500000	-0.099100  
890.000000	-0.119578  
890.500000	-0.128677  
891.000000	-0.149851  
891.500000	-0.165575  
892.000000	-0.156907  
892.500000	-0.117081  
893.000000	-0.098723  
893.500000	-0.095484  
894.000000	-0.080020  
894.500000	-0.086465  
895.000000	-0.086155  
895.500000	-0.066465  
896.000000	-0.052621  
896.500000	-0.053881  

