PE FL                   SPECTRUM    ASCII       PEDS        1.60        
  -1
S00BAB~1.SP
24/04/11
16:10:27.00
24/04/11
16:10:27.00
Jan

896.500000
1









LS55
405.00
5.00
5.00
SCAN
1
20
100
100
0
400
0
1
0
1
5
ON
736 405 
1 0 0
#HDR
-1
-1
#GR
NM

0.00002384185791015625
0.0
450.000000
0.500000
894
8
398.974576
-0.256755
#DATA
450.000000	0.066000   
450.500000	0.138384   
451.000000	0.185508   
451.500000	0.223936   
452.000000	0.208909   
452.500000	0.203517   
453.000000	0.216705   
453.500000	0.265686   
454.000000	0.338589   
454.500000	0.415545   
455.000000	0.469116   
455.500000	0.435788   
456.000000	0.343758   
456.500000	0.244282   
457.000000	0.176159   
457.500000	0.135536   
458.000000	0.145573   
458.500000	0.216024   
459.000000	0.249408   
459.500000	0.226998   
460.000000	0.204564   
460.500000	0.241263   
461.000000	0.292011   
461.500000	0.333812   
462.000000	0.405361   
462.500000	0.466220   
463.000000	0.407803   
463.500000	0.269146   
464.000000	0.169087   
464.500000	0.113651   
465.000000	0.025248   
465.500000	-0.013970  
466.000000	0.080742   
466.500000	0.138525   
467.000000	0.140202   
467.500000	0.166988   
468.000000	0.254833   
468.500000	0.265322   
469.000000	0.188256   
469.500000	0.154066   
470.000000	0.098192   
470.500000	0.008612   
471.000000	-0.044764  
471.500000	-0.013998  
472.000000	0.012658   
472.500000	0.051161   
473.000000	0.096339   
473.500000	0.140332   
474.000000	0.163035   
474.500000	0.175196   
475.000000	0.175376   
475.500000	0.130914   
476.000000	0.112495   
476.500000	0.083141   
477.000000	0.059729   
477.500000	0.070473   
478.000000	0.103808   
478.500000	0.136604   
479.000000	0.115547   
479.500000	0.103179   
480.000000	0.099630   
480.500000	0.079730   
481.000000	0.082595   
481.500000	0.123294   
482.000000	0.190196   
482.500000	0.238560   
483.000000	0.300233   
483.500000	0.375300   
484.000000	0.400189   
484.500000	0.363200   
485.000000	0.291467   
485.500000	0.223810   
486.000000	0.150246   
486.500000	0.107851   
487.000000	0.112745   
487.500000	0.153792   
488.000000	0.186307   
488.500000	0.229884   
489.000000	0.276604   
489.500000	0.303775   
490.000000	0.321324   
490.500000	0.341755   
491.000000	0.380927   
491.500000	0.403410   
492.000000	0.421011   
492.500000	0.476979   
493.000000	0.509398   
493.500000	0.491218   
494.000000	0.438159   
494.500000	0.398465   
495.000000	0.363218   
495.500000	0.324243   
496.000000	0.353248   
496.500000	0.380072   
497.000000	0.366701   
497.500000	0.329107   
498.000000	0.281519   
498.500000	0.297248   
499.000000	0.320365   
499.500000	0.408909   
500.000000	0.523649   
500.500000	0.600666   
501.000000	0.675228   
501.500000	0.684317   
502.000000	0.702807   
502.500000	0.736226   
503.000000	0.750851   
503.500000	0.780146   
504.000000	0.754628   
504.500000	0.744382   
505.000000	0.710250   
505.500000	0.720860   
506.000000	0.801033   
506.500000	0.880502   
507.000000	1.028829   
507.500000	1.167298   
508.000000	1.293569   
508.500000	1.348272   
509.000000	1.360404   
509.500000	1.346066   
510.000000	1.251938   
510.500000	1.181252   
511.000000	1.155120   
511.500000	1.213294   
512.000000	1.300352   
512.500000	1.454122   
513.000000	1.623998   
513.500000	1.773998   
514.000000	1.898586   
514.500000	2.001866   
515.000000	2.159742   
515.500000	2.277940   
516.000000	2.404294   
516.500000	2.511391   
517.000000	2.601838   
517.500000	2.619536   
518.000000	2.559829   
518.500000	2.548348   
519.000000	2.505424   
519.500000	2.476389   
520.000000	2.478589   
520.500000	2.527358   
521.000000	2.608111   
521.500000	2.641237   
522.000000	2.721658   
522.500000	2.759098   
523.000000	2.768441   
523.500000	2.782122   
524.000000	2.770179   
524.500000	2.831992   
525.000000	2.886940   
525.500000	3.046604   
526.000000	3.243141   
526.500000	3.474940   
527.000000	3.710022   
527.500000	3.784662   
528.000000	3.864595   
528.500000	3.890269   
529.000000	3.992764   
529.500000	4.160847   
530.000000	4.436081   
530.500000	4.861218   
531.000000	5.185458   
531.500000	5.432831   
532.000000	5.605979   
532.500000	5.761259   
533.000000	5.877079   
533.500000	5.999649   
534.000000	6.254768   
534.500000	6.525337   
535.000000	6.712625   
535.500000	6.938031   
536.000000	7.205000   
536.500000	7.481126   
537.000000	7.777460   
537.500000	8.142972   
538.000000	8.562133   
538.500000	8.942424   
539.000000	9.282719   
539.500000	9.645755   
540.000000	10.016493  
540.500000	10.387827  
541.000000	10.758654  
541.500000	11.081458  
542.000000	11.330948  
542.500000	11.419602  
543.000000	11.391337  
543.500000	11.240588  
544.000000	11.046844  
544.500000	10.892428  
545.000000	10.805621  
545.500000	10.852521  
546.000000	10.869025  
546.500000	10.838512  
547.000000	10.664614  
547.500000	10.397551  
548.000000	10.042495  
548.500000	9.780478   
549.000000	9.690664   
549.500000	9.773575   
550.000000	10.070666  
550.500000	10.337437  
551.000000	10.594825  
551.500000	10.670100  
552.000000	10.579089  
552.500000	10.381256  
553.000000	10.191977  
553.500000	10.190775  
554.000000	10.265053  
554.500000	10.510801  
555.000000	10.821025  
555.500000	11.145706  
556.000000	11.355792  
556.500000	11.529558  
557.000000	11.716669  
557.500000	11.870185  
558.000000	12.050155  
558.500000	12.197350  
559.000000	12.358502  
559.500000	12.447690  
560.000000	12.644109  
560.500000	12.977942  
561.000000	13.509473  
561.500000	14.151224  
562.000000	14.757285  
562.500000	15.339589  
563.000000	15.643161  
563.500000	15.825074  
564.000000	16.011241  
564.500000	16.411858  
565.000000	16.964437  
565.500000	17.707595  
566.000000	18.780482  
566.500000	19.833844  
567.000000	20.762749  
567.500000	21.565710  
568.000000	22.342263  
568.500000	22.991337  
569.000000	23.640573  
569.500000	24.578651  
570.000000	25.654933  
570.500000	26.753421  
571.000000	27.634387  
571.500000	28.386827  
572.000000	28.894972  
572.500000	29.322367  
573.000000	29.940302  
573.500000	30.789012  
574.000000	31.886040  
574.500000	32.892467  
575.000000	33.842990  
575.500000	34.529324  
576.000000	35.052072  
576.500000	35.629840  
577.000000	36.341669  
577.500000	37.310966  
578.000000	38.363267  
578.500000	39.522411  
579.000000	40.599020  
579.500000	41.460794  
580.000000	42.105641  
580.500000	42.692714  
581.000000	43.213337  
581.500000	43.745109  
582.000000	44.453764  
582.500000	45.489530  
583.000000	46.771992  
583.500000	48.090575  
584.000000	49.576871  
584.500000	51.080769  
585.000000	52.400883  
585.500000	53.478855  
586.000000	54.502105  
586.500000	55.650975  
587.000000	56.709564  
587.500000	57.864194  
588.000000	59.154777  
588.500000	60.463552  
589.000000	61.658619  
589.500000	62.830873  
590.000000	64.004810  
590.500000	65.232261  
591.000000	66.619092  
591.500000	68.172578  
592.000000	70.102033  
592.500000	72.097230  
593.000000	74.234610  
593.500000	76.318050  
594.000000	78.301011  
594.500000	80.065781  
595.000000	81.417283  
595.500000	82.841866  
596.000000	84.306692  
596.500000	85.946174  
597.000000	87.547532  
597.500000	89.245508  
598.000000	91.022602  
598.500000	92.721395  
599.000000	94.646758  
599.500000	96.892959  
600.000000	99.335276  
600.500000	101.645612 
601.000000	103.891491 
601.500000	106.059896 
602.000000	108.039204 
602.500000	109.713387 
603.000000	111.663959 
603.500000	113.936888 
604.000000	116.195903 
604.500000	118.877985 
605.000000	122.168276 
605.500000	125.627168 
606.000000	128.796157 
606.500000	131.949747 
607.000000	135.195985 
607.500000	137.832749 
608.000000	140.071951 
608.500000	142.586595 
609.000000	145.391640 
609.500000	148.184135 
610.000000	151.204061 
610.500000	154.811725 
611.000000	158.532944 
611.500000	162.161361 
612.000000	166.170834 
612.500000	170.335126 
613.000000	174.576627 
613.500000	178.695105 
614.000000	182.729710 
614.500000	186.744758 
615.000000	190.153686 
615.500000	193.425990 
616.000000	196.569048 
616.500000	199.700938 
617.000000	202.894243 
617.500000	206.413343 
618.000000	210.513684 
618.500000	214.401786 
619.000000	218.271727 
619.500000	222.175070 
620.000000	225.990666 
620.500000	229.973332 
621.000000	233.833428 
621.500000	238.275194 
622.000000	242.890799 
622.500000	247.572539 
623.000000	252.214397 
623.500000	256.335753 
624.000000	260.619716 
624.500000	264.639864 
625.000000	268.745330 
625.500000	273.107469 
626.000000	277.600302 
626.500000	282.326001 
627.000000	286.620864 
627.500000	291.133519 
628.000000	295.764274 
628.500000	300.402261 
629.000000	305.020513 
629.500000	309.444012 
630.000000	314.103725 
630.500000	318.648003 
631.000000	322.611968 
631.500000	326.465508 
632.000000	330.284261 
632.500000	334.036237 
633.000000	337.587452 
633.500000	341.811085 
634.000000	346.421493 
634.500000	350.883092 
635.000000	355.080410 
635.500000	359.044630 
636.000000	362.304743 
636.500000	364.519575 
637.000000	366.898092 
637.500000	369.457064 
638.000000	372.322946 
638.500000	375.394354 
639.000000	378.774463 
639.500000	382.292615 
640.000000	384.988235 
640.500000	387.319218 
641.000000	389.022400 
641.500000	390.493074 
642.000000	391.853510 
642.500000	393.300198 
643.000000	395.234218 
643.500000	396.923769 
644.000000	398.290215 
644.500000	398.894795 
645.000000	398.974576 
645.500000	398.613640 
646.000000	398.034888 
646.500000	397.946146 
647.000000	397.811029 
647.500000	397.882499 
648.000000	397.763768 
648.500000	397.449714 
649.000000	397.127782 
649.500000	396.438552 
650.000000	395.876801 
650.500000	394.671476 
651.000000	393.209135 
651.500000	391.389714 
652.000000	389.207571 
652.500000	387.249775 
653.000000	385.557192 
653.500000	384.411803 
654.000000	382.951840 
654.500000	381.054690 
655.000000	378.888771 
655.500000	375.991953 
656.000000	372.743820 
656.500000	369.940641 
657.000000	367.435749 
657.500000	364.522183 
658.000000	360.923823 
658.500000	357.043502 
659.000000	352.689393 
659.500000	347.864738 
660.000000	343.363231 
660.500000	339.682174 
661.000000	336.462172 
661.500000	333.110320 
662.000000	329.468621 
662.500000	324.806033 
663.000000	319.921061 
663.500000	314.638551 
664.000000	309.604539 
664.500000	304.953948 
665.000000	300.707808 
665.500000	296.545582 
666.000000	291.565217 
666.500000	286.733612 
667.000000	281.465419 
667.500000	275.844890 
668.000000	270.460905 
668.500000	265.688647 
669.000000	261.215254 
669.500000	256.211883 
670.000000	250.903953 
670.500000	245.374814 
671.000000	239.026699 
671.500000	232.531868 
672.000000	226.452552 
672.500000	220.650174 
673.000000	215.270779 
673.500000	210.189502 
674.000000	205.732632 
674.500000	201.154781 
675.000000	196.530118 
675.500000	192.009777 
676.000000	187.522805 
676.500000	182.788076 
677.000000	177.702452 
677.500000	172.903178 
678.000000	167.989970 
678.500000	163.168012 
679.000000	158.407682 
679.500000	153.892732 
680.000000	149.475847 
680.500000	145.061150 
681.000000	141.095205 
681.500000	137.153552 
682.000000	133.438855 
682.500000	129.857717 
683.000000	126.630064 
683.500000	123.579261 
684.000000	120.316293 
684.500000	117.291435 
685.000000	114.144565 
685.500000	110.859517 
686.000000	107.400957 
686.500000	104.028543 
687.000000	100.766322 
687.500000	97.545419  
688.000000	94.516643  
688.500000	91.820651  
689.000000	89.413539  
689.500000	86.979860  
690.000000	84.615838  
690.500000	82.305495  
691.000000	80.030619  
691.500000	77.618157  
692.000000	75.297408  
692.500000	73.207053  
693.000000	71.028038  
693.500000	68.808660  
694.000000	66.575413  
694.500000	64.509638  
695.000000	62.461348  
695.500000	60.522797  
696.000000	58.848085  
696.500000	57.251675  
697.000000	55.617742  
697.500000	53.958495  
698.000000	52.490311  
698.500000	51.272552  
699.000000	50.108988  
699.500000	48.922326  
700.000000	47.640589  
700.500000	46.240263  
701.000000	44.642072  
701.500000	43.198328  
702.000000	42.211632  
702.500000	41.265424  
703.000000	40.258061  
703.500000	39.362059  
704.000000	38.567155  
704.500000	37.576196  
705.000000	36.595931  
705.500000	35.887204  
706.000000	35.151077  
706.500000	34.323007  
707.000000	33.437300  
707.500000	32.649602  
708.000000	31.739191  
708.500000	30.828560  
709.000000	30.046816  
709.500000	29.306204  
710.000000	28.568001  
710.500000	27.865055  
711.000000	27.300224  
711.500000	26.728194  
712.000000	26.098847  
712.500000	25.412278  
713.000000	24.738135  
713.500000	24.061302  
714.000000	23.331092  
714.500000	22.748604  
715.000000	22.197365  
715.500000	21.652729  
716.000000	21.136139  
716.500000	20.723489  
717.000000	20.425332  
717.500000	20.155018  
718.000000	19.964369  
718.500000	19.727076  
719.000000	19.334061  
719.500000	18.794285  
720.000000	18.195124  
720.500000	17.629300  
721.000000	17.110714  
721.500000	16.663959  
722.000000	16.364979  
722.500000	16.184862  
723.000000	16.033217  
723.500000	15.887936  
724.000000	15.741150  
724.500000	15.569781  
725.000000	15.229471  
725.500000	14.863415  
726.000000	14.507808  
726.500000	14.125157  
727.000000	13.757716  
727.500000	13.445289  
728.000000	13.234771  
728.500000	12.969667  
729.000000	12.730198  
729.500000	12.507410  
730.000000	12.319586  
730.500000	12.180716  
731.000000	11.989432  
731.500000	11.835523  
732.000000	11.665656  
732.500000	11.467942  
733.000000	11.218471  
733.500000	10.968029  
734.000000	10.757148  
734.500000	10.452688  
735.000000	10.203549  
735.500000	10.066417  
736.000000	9.969423   
736.500000	9.888753   
737.000000	9.828358   
737.500000	9.744059   
738.000000	9.513562   
738.500000	9.294888   
739.000000	9.130745   
739.500000	8.935564   
740.000000	8.787692   
740.500000	8.714278   
741.000000	8.631270   
741.500000	8.465669   
742.000000	8.337803   
742.500000	8.217198   
743.000000	8.097838   
743.500000	8.005450   
744.000000	7.909521   
744.500000	7.816077   
745.000000	7.672719   
745.500000	7.477818   
746.000000	7.257769   
746.500000	7.178226   
747.000000	7.140018   
747.500000	7.095868   
748.000000	7.077641   
748.500000	7.085736   
749.000000	7.021115   
749.500000	6.818059   
750.000000	6.686482   
750.500000	6.609187   
751.000000	6.519805   
751.500000	6.415582   
752.000000	6.340285   
752.500000	6.290677   
753.000000	6.169747   
753.500000	6.099469   
754.000000	6.093150   
754.500000	6.176241   
755.000000	6.242244   
755.500000	6.239421   
756.000000	6.182254   
756.500000	6.076530   
757.000000	5.880410   
757.500000	5.675510   
758.000000	5.545005   
758.500000	5.501925   
759.000000	5.491671   
759.500000	5.461515   
760.000000	5.471476   
760.500000	5.430441   
761.000000	5.356705   
761.500000	5.290994   
762.000000	5.264756   
762.500000	5.236033   
763.000000	5.189920   
763.500000	5.185541   
764.000000	5.124547   
764.500000	5.030936   
765.000000	4.940706   
765.500000	4.870940   
766.000000	4.835987   
766.500000	4.825450   
767.000000	4.834751   
767.500000	4.779400   
768.000000	4.652916   
768.500000	4.468213   
769.000000	4.284742   
769.500000	4.114404   
770.000000	3.994179   
770.500000	3.953035   
771.000000	3.912519   
771.500000	3.866923   
772.000000	3.791955   
772.500000	3.716996   
773.000000	3.671237   
773.500000	3.673087   
774.000000	3.699730   
774.500000	3.713836   
775.000000	3.719539   
775.500000	3.735827   
776.000000	3.778089   
776.500000	3.812597   
777.000000	3.886450   
777.500000	3.927682   
778.000000	3.915482   
778.500000	3.819098   
779.000000	3.731810   
779.500000	3.635686   
780.000000	3.520025   
780.500000	3.449328   
781.000000	3.412000   
781.500000	3.418977   
782.000000	3.425532   
782.500000	3.446393   
783.000000	3.499419   
783.500000	3.515821   
784.000000	3.477586   
784.500000	3.401426   
785.000000	3.323756   
785.500000	3.244586   
786.000000	3.141625   
786.500000	3.063493   
787.000000	3.018942   
787.500000	2.994354   
788.000000	2.980044   
788.500000	2.989469   
789.000000	3.048749   
789.500000	3.074185   
790.000000	3.078081   
790.500000	3.062348   
791.000000	3.017432   
791.500000	2.936118   
792.000000	2.837812   
792.500000	2.764565   
793.000000	2.715717   
793.500000	2.696612   
794.000000	2.733858   
794.500000	2.777897   
795.000000	2.840111   
795.500000	2.875207   
796.000000	2.868304   
796.500000	2.837515   
797.000000	2.792519   
797.500000	2.781241   
798.000000	2.732747   
798.500000	2.715879   
799.000000	2.703252   
799.500000	2.672220   
800.000000	2.658487   
800.500000	2.703176   
801.000000	2.745005   
801.500000	2.745448   
802.000000	2.738402   
802.500000	2.682595   
803.000000	2.598183   
803.500000	2.507526   
804.000000	2.500261   
804.500000	2.485020   
805.000000	2.454638   
805.500000	2.443011   
806.000000	2.435820   
806.500000	2.400766   
807.000000	2.355795   
807.500000	2.402252   
808.000000	2.419745   
808.500000	2.372276   
809.000000	2.298129   
809.500000	2.233365   
810.000000	2.133517   
810.500000	2.071961   
811.000000	2.083150   
811.500000	2.108701   
812.000000	2.092782   
812.500000	2.069504   
813.000000	2.036593   
813.500000	1.917497   
814.000000	1.763165   
814.500000	1.621640   
815.000000	1.508870   
815.500000	1.451146   
816.000000	1.500888   
816.500000	1.645499   
817.000000	1.823209   
817.500000	2.012565   
818.000000	2.161560   
818.500000	2.263038   
819.000000	2.306925   
819.500000	2.323476   
820.000000	2.337602   
820.500000	2.403923   
821.000000	2.460085   
821.500000	2.485059   
822.000000	2.503063   
822.500000	2.530499   
823.000000	2.560497   
823.500000	2.590510   
824.000000	2.686749   
824.500000	2.766029   
825.000000	2.847315   
825.500000	2.872469   
826.000000	2.844840   
826.500000	2.752601   
827.000000	2.565296   
827.500000	2.344161   
828.000000	2.092818   
828.500000	1.902077   
829.000000	1.767144   
829.500000	1.705679   
830.000000	1.733996   
830.500000	1.795476   
831.000000	1.813198   
831.500000	1.750103   
832.000000	1.639179   
832.500000	1.491634   
833.000000	1.338005   
833.500000	1.235497   
834.000000	1.186790   
834.500000	1.156445   
835.000000	1.142582   
835.500000	1.125129   
836.000000	1.118912   
836.500000	1.088239   
837.000000	1.051515   
837.500000	1.000406   
838.000000	0.928842   
838.500000	0.852493   
839.000000	0.811948   
839.500000	0.827558   
840.000000	0.879573   
840.500000	0.958571   
841.000000	1.036604   
841.500000	1.056562   
842.000000	1.023382   
842.500000	0.929356   
843.000000	0.791077   
843.500000	0.643606   
844.000000	0.550163   
844.500000	0.521821   
845.000000	0.526667   
845.500000	0.574909   
846.000000	0.611014   
846.500000	0.594346   
847.000000	0.507907   
847.500000	0.434417   
848.000000	0.390424   
848.500000	0.338818   
849.000000	0.359881   
849.500000	0.409272   
850.000000	0.463263   
850.500000	0.458159   
851.000000	0.469398   
851.500000	0.492369   
852.000000	0.471465   
852.500000	0.461187   
853.000000	0.413408   
853.500000	0.396087   
854.000000	0.377074   
854.500000	0.340840   
855.000000	0.351979   
855.500000	0.325269   
856.000000	0.287552   
856.500000	0.198230   
857.000000	0.140222   
857.500000	0.151300   
858.000000	0.161649   
858.500000	0.233059   
859.000000	0.309319   
859.500000	0.352265   
860.000000	0.297395   
860.500000	0.209102   
861.000000	0.144293   
861.500000	0.076367   
862.000000	0.056938   
862.500000	0.057638   
863.000000	0.056283   
863.500000	0.039816   
864.000000	0.002951   
864.500000	-0.029048  
865.000000	-0.019435  
865.500000	0.037634   
866.000000	0.109354   
866.500000	0.198359   
867.000000	0.286122   
867.500000	0.313957   
868.000000	0.283515   
868.500000	0.212669   
869.000000	0.169782   
869.500000	0.078884   
870.000000	0.007486   
870.500000	-0.039970  
871.000000	-0.092035  
871.500000	-0.118834  
872.000000	-0.158554  
872.500000	-0.147877  
873.000000	-0.173222  
873.500000	-0.154506  
874.000000	-0.132521  
874.500000	-0.109497  
875.000000	-0.061211  
875.500000	-0.020257  
876.000000	0.046269   
876.500000	0.066198   
877.000000	0.072385   
877.500000	0.056595   
878.000000	0.031886   
878.500000	-0.006628  
879.000000	-0.017474  
879.500000	0.009126   
880.000000	0.029235   
880.500000	0.018539   
881.000000	-0.002883  
881.500000	-0.001692  
882.000000	-0.020523  
882.500000	-0.051063  
883.000000	-0.069699  
883.500000	-0.071016  
884.000000	-0.087168  
884.500000	-0.106946  
885.000000	-0.078671  
885.500000	-0.032309  
886.000000	-0.005614  
886.500000	-0.009526  
887.000000	-0.035755  
887.500000	-0.084888  
888.000000	-0.140237  
888.500000	-0.168456  
889.000000	-0.146703  
889.500000	-0.102486  
890.000000	-0.057202  
890.500000	-0.008254  
891.000000	-0.000786  
891.500000	-0.023677  
892.000000	-0.071170  
892.500000	-0.114300  
893.000000	-0.183079  
893.500000	-0.252282  
894.000000	-0.256755  
894.500000	-0.235489  
895.000000	-0.186222  
895.500000	-0.120217  
896.000000	-0.019400  
896.500000	0.039220   

