PE FL                   SPECTRUM    ASCII       PEDS        1.60        
  -1
S01BC7~1.SP
24/04/11
17:27:28.00
24/04/11
17:27:28.00
Jan

896.500000
1









LS55
405.00
5.00
5.00
SCAN
1
20
100
100
0
400
0
1
0
1
5
ON
736 405 
1 0 0
#HDR
-1
-1
#GR
NM

0.00002384185791015625
0.0
450.000000
0.500000
894
8
295.917890
-0.726000
#DATA
450.000000	-0.726000  
450.500000	-0.363643  
451.000000	-0.086326  
451.500000	0.066884   
452.000000	0.122667   
452.500000	0.077552   
453.000000	-0.024135  
453.500000	-0.130627  
454.000000	-0.198063  
454.500000	-0.203038  
455.000000	-0.156597  
455.500000	-0.075571  
456.000000	0.005096   
456.500000	0.083452   
457.000000	0.125411   
457.500000	0.099226   
458.000000	0.043330   
458.500000	0.005892   
459.000000	-0.018467  
459.500000	-0.063751  
460.000000	-0.076274  
460.500000	-0.054274  
461.000000	-0.049935  
461.500000	-0.049345  
462.000000	-0.013662  
462.500000	0.068658   
463.000000	0.111055   
463.500000	0.159267   
464.000000	0.197743   
464.500000	0.211684   
465.000000	0.210829   
465.500000	0.206333   
466.000000	0.217580   
466.500000	0.227103   
467.000000	0.228283   
467.500000	0.209771   
468.000000	0.161834   
468.500000	0.110710   
469.000000	0.062443   
469.500000	0.045786   
470.000000	0.077886   
470.500000	0.085847   
471.000000	0.084679   
471.500000	0.080977   
472.000000	0.063671   
472.500000	0.041601   
473.000000	0.015597   
473.500000	0.028769   
474.000000	0.009799   
474.500000	-0.026153  
475.000000	-0.049014  
475.500000	-0.059987  
476.000000	-0.067443  
476.500000	-0.026551  
477.000000	0.008962   
477.500000	0.026230   
478.000000	0.015512   
478.500000	-0.016333  
479.000000	-0.069849  
479.500000	-0.103027  
480.000000	-0.041818  
480.500000	0.040940   
481.000000	0.131649   
481.500000	0.212617   
482.000000	0.260389   
482.500000	0.259740   
483.000000	0.230115   
483.500000	0.246703   
484.000000	0.283382   
484.500000	0.312473   
485.000000	0.318539   
485.500000	0.304743   
486.000000	0.238860   
486.500000	0.174335   
487.000000	0.140456   
487.500000	0.129285   
488.000000	0.127176   
488.500000	0.090473   
489.000000	0.066632   
489.500000	0.031883   
490.000000	0.007948   
490.500000	0.046525   
491.000000	0.111315   
491.500000	0.180346   
492.000000	0.200400   
492.500000	0.194664   
493.000000	0.168593   
493.500000	0.124794   
494.000000	0.106567   
494.500000	0.123424   
495.000000	0.180922   
495.500000	0.260118   
496.000000	0.352818   
496.500000	0.447139   
497.000000	0.506883   
497.500000	0.495538   
498.000000	0.447335   
498.500000	0.380517   
499.000000	0.335643   
499.500000	0.305580   
500.000000	0.297211   
500.500000	0.360263   
501.000000	0.407753   
501.500000	0.456628   
502.000000	0.499144   
502.500000	0.529883   
503.000000	0.545261   
503.500000	0.538983   
504.000000	0.571608   
504.500000	0.586773   
505.000000	0.618220   
505.500000	0.668959   
506.000000	0.731873   
506.500000	0.788328   
507.000000	0.793526   
507.500000	0.794589   
508.000000	0.759858   
508.500000	0.745651   
509.000000	0.796317   
509.500000	0.912009   
510.000000	1.085291   
510.500000	1.297868   
511.000000	1.521107   
511.500000	1.674064   
512.000000	1.758959   
512.500000	1.818230   
513.000000	1.850009   
513.500000	1.888233   
514.000000	1.972870   
514.500000	2.103935   
515.000000	2.195820   
515.500000	2.265977   
516.000000	2.316881   
516.500000	2.317150   
517.000000	2.289267   
517.500000	2.321267   
518.000000	2.414699   
518.500000	2.497658   
519.000000	2.611113   
519.500000	2.753161   
520.000000	2.850387   
520.500000	2.887380   
521.000000	2.916886   
521.500000	2.943192   
522.000000	2.932634   
522.500000	2.889909   
523.000000	2.890435   
523.500000	2.911211   
524.000000	2.973447   
524.500000	3.075120   
525.000000	3.248135   
525.500000	3.475935   
526.000000	3.672816   
526.500000	3.876935   
527.000000	4.100350   
527.500000	4.360771   
528.000000	4.645294   
528.500000	4.965220   
529.000000	5.279170   
529.500000	5.582267   
530.000000	5.831300   
530.500000	5.969244   
531.000000	6.039784   
531.500000	6.103964   
532.000000	6.197942   
532.500000	6.247359   
533.000000	6.320679   
533.500000	6.415133   
534.000000	6.501120   
534.500000	6.645243   
535.000000	6.943612   
535.500000	7.392369   
536.000000	7.930636   
536.500000	8.493038   
537.000000	9.080365   
537.500000	9.583851   
538.000000	10.022445  
538.500000	10.446280  
539.000000	10.914372  
539.500000	11.452076  
540.000000	11.986790  
540.500000	12.489207  
541.000000	12.852261  
541.500000	13.035152  
542.000000	13.002673  
542.500000	12.816884  
543.000000	12.449959  
543.500000	11.985011  
544.000000	11.564372  
544.500000	11.269827  
545.000000	11.148977  
545.500000	11.147677  
546.000000	11.324261  
546.500000	11.433499  
547.000000	11.436022  
547.500000	11.333788  
548.000000	11.176163  
548.500000	10.937411  
549.000000	10.672604  
549.500000	10.481736  
550.000000	10.281194  
550.500000	10.132207  
551.000000	9.971304   
551.500000	10.004257  
552.000000	10.126747  
552.500000	10.250992  
553.000000	10.382502  
553.500000	10.509992  
554.000000	10.683419  
554.500000	10.760491  
555.000000	10.928363  
555.500000	11.194341  
556.000000	11.447345  
556.500000	11.601341  
557.000000	11.731922  
557.500000	11.953760  
558.000000	12.098584  
558.500000	12.299330  
559.000000	12.635564  
559.500000	13.077096  
560.000000	13.554727  
560.500000	14.039951  
561.000000	14.615927  
561.500000	15.175272  
562.000000	15.687153  
562.500000	16.213530  
563.000000	16.683502  
563.500000	17.195168  
564.000000	17.664005  
564.500000	18.204076  
565.000000	18.613638  
565.500000	18.964773  
566.000000	19.327328  
566.500000	19.603419  
567.000000	19.998040  
567.500000	20.499847  
568.000000	21.121352  
568.500000	21.695745  
569.000000	22.164205  
569.500000	22.572690  
570.000000	22.926296  
570.500000	23.368079  
571.000000	23.890807  
571.500000	24.689469  
572.000000	25.615747  
572.500000	26.611079  
573.000000	27.410920  
573.500000	28.071506  
574.000000	28.653784  
574.500000	29.159487  
575.000000	29.779671  
575.500000	30.510538  
576.000000	31.365487  
576.500000	32.259846  
577.000000	33.235925  
577.500000	34.232896  
578.000000	35.168897  
578.500000	36.138586  
579.000000	37.020122  
579.500000	37.594089  
580.000000	37.951717  
580.500000	38.306265  
581.000000	38.542192  
581.500000	38.873174  
582.000000	39.514684  
582.500000	40.823998  
583.000000	42.365311  
583.500000	44.096341  
584.000000	45.904063  
584.500000	47.331461  
585.000000	48.476274  
585.500000	49.213923  
586.000000	50.097005  
586.500000	50.983317  
587.000000	52.059708  
587.500000	53.516738  
588.000000	54.897532  
588.500000	56.351827  
589.000000	57.677029  
589.500000	59.020005  
590.000000	60.337551  
590.500000	61.601805  
591.000000	63.117369  
591.500000	64.647692  
592.000000	66.172482  
592.500000	67.840465  
593.000000	69.706128  
593.500000	71.732417  
594.000000	73.627606  
594.500000	75.571699  
595.000000	77.264224  
595.500000	78.650647  
596.000000	79.848294  
596.500000	80.980426  
597.000000	82.304920  
597.500000	83.789007  
598.000000	85.791818  
598.500000	88.003983  
599.000000	90.465280  
599.500000	92.953419  
600.000000	95.305474  
600.500000	97.597198  
601.000000	99.749408  
601.500000	102.126228 
602.000000	104.376525 
602.500000	106.944829 
603.000000	109.525187 
603.500000	111.744996 
604.000000	113.920771 
604.500000	115.825235 
605.000000	118.009311 
605.500000	120.384209 
606.000000	123.392981 
606.500000	126.853081 
607.000000	130.123910 
607.500000	133.145421 
608.000000	135.620749 
608.500000	137.773990 
609.000000	139.551519 
609.500000	141.558263 
610.000000	144.128000 
610.500000	146.769666 
611.000000	149.936693 
611.500000	153.577371 
612.000000	157.541296 
612.500000	161.360961 
613.000000	164.903061 
613.500000	168.204560 
614.000000	170.816903 
614.500000	173.018751 
615.000000	175.673602 
615.500000	178.725892 
616.000000	182.202410 
616.500000	186.201727 
617.000000	190.002165 
617.500000	193.106369 
618.000000	195.703417 
618.500000	198.319775 
619.000000	200.917402 
619.500000	203.884640 
620.000000	207.816795 
620.500000	211.816035 
621.000000	215.793749 
621.500000	219.405102 
622.000000	222.888324 
622.500000	225.690628 
623.000000	228.229300 
623.500000	231.205955 
624.000000	234.177534 
624.500000	237.626554 
625.000000	241.266818 
625.500000	245.052400 
626.000000	248.405000 
626.500000	251.493113 
627.000000	254.518823 
627.500000	256.890862 
628.000000	259.246022 
628.500000	261.449617 
629.000000	263.956706 
629.500000	266.195870 
630.000000	268.349272 
630.500000	270.591293 
631.000000	272.914736 
631.500000	275.300419 
632.000000	277.459844 
632.500000	279.741894 
633.000000	281.699630 
633.500000	283.349886 
634.000000	284.331129 
634.500000	285.569510 
635.000000	286.903738 
635.500000	288.001922 
636.000000	289.410803 
636.500000	290.702385 
637.000000	292.033606 
637.500000	292.702402 
638.000000	293.494178 
638.500000	294.475285 
639.000000	295.130864 
639.500000	295.655799 
640.000000	295.862738 
640.500000	295.917890 
641.000000	295.632825 
641.500000	295.322818 
642.000000	295.367758 
642.500000	295.388452 
643.000000	295.279434 
643.500000	294.924597 
644.000000	294.055272 
644.500000	292.645218 
645.000000	291.227925 
645.500000	289.978719 
646.000000	288.776218 
646.500000	287.902090 
647.000000	287.052020 
647.500000	285.939532 
648.000000	284.125936 
648.500000	281.976925 
649.000000	279.618166 
649.500000	276.705632 
650.000000	273.916781 
650.500000	271.274554 
651.000000	269.196844 
651.500000	267.294025 
652.000000	265.530972 
652.500000	264.115545 
653.000000	262.244716 
653.500000	259.770072 
654.000000	256.488365 
654.500000	252.816369 
655.000000	249.179372 
655.500000	245.524523 
656.000000	242.485473 
656.500000	239.817573 
657.000000	236.880742 
657.500000	233.769500 
658.000000	230.422142 
658.500000	226.429846 
659.000000	222.219454 
659.500000	218.192244 
660.000000	214.286627 
660.500000	209.795330 
661.000000	205.371610 
661.500000	201.173079 
662.000000	196.732567 
662.500000	192.238254 
663.000000	188.052981 
663.500000	184.185274 
664.000000	179.890858 
664.500000	175.668076 
665.000000	171.632324 
665.500000	167.652877 
666.000000	163.467012 
666.500000	159.242450 
667.000000	155.332294 
667.500000	151.462196 
668.000000	147.900927 
668.500000	144.447400 
669.000000	141.215471 
669.500000	137.726640 
670.000000	133.997981 
670.500000	130.164918 
671.000000	126.202074 
671.500000	122.446176 
672.000000	118.930179 
672.500000	115.674324 
673.000000	112.599916 
673.500000	109.572936 
674.000000	106.663584 
674.500000	103.701649 
675.000000	100.711808 
675.500000	97.803525  
676.000000	94.842100  
676.500000	92.020022  
677.000000	89.132046  
677.500000	86.436768  
678.000000	83.876775  
678.500000	81.414820  
679.000000	79.125855  
679.500000	76.826710  
680.000000	74.783009  
680.500000	72.827799  
681.000000	70.980057  
681.500000	69.197419  
682.000000	67.275948  
682.500000	65.401662  
683.000000	63.440061  
683.500000	61.459712  
684.000000	59.575294  
684.500000	57.761115  
685.000000	56.036756  
685.500000	54.168463  
686.000000	52.381825  
686.500000	50.622870  
687.000000	48.778961  
687.500000	47.076205  
688.000000	45.602274  
688.500000	44.325265  
689.000000	43.303068  
689.500000	42.523428  
690.000000	41.931135  
690.500000	41.221977  
691.000000	40.287371  
691.500000	39.238695  
692.000000	37.946270  
692.500000	36.545712  
693.000000	35.202352  
693.500000	34.074517  
694.000000	33.036833  
694.500000	32.032651  
695.000000	31.182035  
695.500000	30.383666  
696.000000	29.691358  
696.500000	28.969547  
697.000000	28.395467  
697.500000	27.880304  
698.000000	27.275628  
698.500000	26.511248  
699.000000	25.638194  
699.500000	24.751007  
700.000000	23.866881  
700.500000	23.088693  
701.000000	22.524452  
701.500000	22.210794  
702.000000	22.001671  
702.500000	21.670732  
703.000000	21.210107  
703.500000	20.577675  
704.000000	19.704710  
704.500000	18.861359  
705.000000	18.162701  
705.500000	17.702487  
706.000000	17.396072  
706.500000	17.138966  
707.000000	17.010500  
707.500000	16.771341  
708.000000	16.505103  
708.500000	16.341515  
709.000000	16.231658  
709.500000	16.098534  
710.000000	15.889445  
710.500000	15.645569  
711.000000	15.230899  
711.500000	14.666174  
712.000000	14.111339  
712.500000	13.581235  
713.000000	13.154790  
713.500000	12.884959  
714.000000	12.802671  
714.500000	12.760113  
715.000000	12.784035  
715.500000	12.805063  
716.000000	12.777461  
716.500000	12.668068  
717.000000	12.467714  
717.500000	12.211434  
718.000000	11.749699  
718.500000	11.366359  
719.000000	10.980259  
719.500000	10.654879  
720.000000	10.513293  
720.500000	10.476719  
721.000000	10.521397  
721.500000	10.430250  
722.000000	10.387907  
722.500000	10.247792  
723.000000	9.984139   
723.500000	9.700760   
724.000000	9.385710   
724.500000	9.096484   
725.000000	8.768910   
725.500000	8.588545   
726.000000	8.546918   
726.500000	8.587102   
727.000000	8.648228   
727.500000	8.630812   
728.000000	8.520569   
728.500000	8.303554   
729.000000	8.048730   
729.500000	7.811228   
730.000000	7.744773   
730.500000	7.811875   
731.000000	7.868656   
731.500000	7.834450   
732.000000	7.708276   
732.500000	7.456454   
733.000000	7.104376   
733.500000	6.803506   
734.000000	6.646831   
734.500000	6.630020   
735.000000	6.719105   
735.500000	6.900217   
736.000000	7.077118   
736.500000	7.188638   
737.000000	7.267025   
737.500000	7.231801   
738.000000	7.052484   
738.500000	6.851795   
739.000000	6.614641   
739.500000	6.347178   
740.000000	6.072975   
740.500000	5.945610   
741.000000	5.833172   
741.500000	5.701766   
742.000000	5.689081   
742.500000	5.721287   
743.000000	5.712936   
743.500000	5.663176   
744.000000	5.661903   
744.500000	5.680586   
745.000000	5.633734   
745.500000	5.610113   
746.000000	5.584794   
746.500000	5.469092   
747.000000	5.386155   
747.500000	5.281339   
748.000000	5.200732   
748.500000	5.113569   
749.000000	5.103035   
749.500000	5.145467   
750.000000	5.120428   
750.500000	5.129378   
751.000000	5.093150   
751.500000	5.081298   
752.000000	5.018591   
752.500000	4.975827   
753.000000	4.940111   
753.500000	4.814647   
754.000000	4.635742   
754.500000	4.421261   
755.000000	4.267736   
755.500000	4.171059   
756.000000	4.230717   
756.500000	4.390907   
757.000000	4.629743   
757.500000	4.787525   
758.000000	4.772916   
758.500000	4.621758   
759.000000	4.395894   
759.500000	4.210877   
760.000000	4.047185   
760.500000	4.001326   
761.000000	3.992352   
761.500000	3.997096   
762.000000	4.005554   
762.500000	4.031328   
763.000000	4.120580   
763.500000	4.185946   
764.000000	4.302423   
764.500000	4.374061   
765.000000	4.346317   
765.500000	4.269992   
766.000000	4.189398   
766.500000	4.148293   
767.000000	4.085454   
767.500000	4.031291   
768.000000	3.978337   
768.500000	3.843777   
769.000000	3.683157   
769.500000	3.535077   
770.000000	3.488949   
770.500000	3.515313   
771.000000	3.591434   
771.500000	3.738549   
772.000000	3.840463   
772.500000	3.864105   
773.000000	3.813630   
773.500000	3.720183   
774.000000	3.622547   
774.500000	3.542382   
775.000000	3.495710   
775.500000	3.428916   
776.000000	3.332805   
776.500000	3.216320   
777.000000	3.106447   
777.500000	3.003974   
778.000000	2.968129   
778.500000	3.002968   
779.000000	3.035046   
779.500000	3.031740   
780.000000	2.981671   
780.500000	2.920812   
781.000000	2.860983   
781.500000	2.826068   
782.000000	2.863842   
782.500000	2.937614   
783.000000	3.004218   
783.500000	3.013994   
784.000000	2.988178   
784.500000	2.942094   
785.000000	2.900617   
785.500000	2.893320   
786.000000	2.929111   
786.500000	2.975526   
787.000000	2.996111   
787.500000	2.998139   
788.000000	2.984968   
788.500000	2.932925   
789.000000	2.846393   
789.500000	2.771825   
790.000000	2.740135   
790.500000	2.695814   
791.000000	2.675397   
791.500000	2.699055   
792.000000	2.734935   
792.500000	2.767261   
793.000000	2.775987   
793.500000	2.806089   
794.000000	2.777397   
794.500000	2.706237   
795.000000	2.620896   
795.500000	2.568855   
796.000000	2.562510   
796.500000	2.575053   
797.000000	2.623953   
797.500000	2.623797   
798.000000	2.596641   
798.500000	2.486881   
799.000000	2.380448   
799.500000	2.297961   
800.000000	2.262189   
800.500000	2.316721   
801.000000	2.380335   
801.500000	2.469404   
802.000000	2.533384   
802.500000	2.566339   
803.000000	2.550727   
803.500000	2.504356   
804.000000	2.425452   
804.500000	2.347688   
805.000000	2.234545   
805.500000	2.106588   
806.000000	1.997981   
806.500000	1.944495   
807.000000	1.942048   
807.500000	1.915781   
808.000000	1.937011   
808.500000	1.942230   
809.000000	1.905083   
809.500000	1.822575   
810.000000	1.761118   
810.500000	1.756024   
811.000000	1.737515   
811.500000	1.765632   
812.000000	1.778575   
812.500000	1.736896   
813.000000	1.599014   
813.500000	1.459283   
814.000000	1.379755   
814.500000	1.360430   
815.000000	1.410159   
815.500000	1.500597   
816.000000	1.618562   
816.500000	1.666623   
817.000000	1.681996   
817.500000	1.742152   
818.000000	1.816584   
818.500000	1.895747   
819.000000	2.035606   
819.500000	2.185415   
820.000000	2.261820   
820.500000	2.268506   
821.000000	2.325699   
821.500000	2.405324   
822.000000	2.446105   
822.500000	2.550285   
823.000000	2.631341   
823.500000	2.653437   
824.000000	2.598682   
824.500000	2.518751   
825.000000	2.428198   
825.500000	2.317484   
826.000000	2.251330   
826.500000	2.169102   
827.000000	2.072591   
827.500000	1.979038   
828.000000	1.860766   
828.500000	1.702358   
829.000000	1.582862   
829.500000	1.508888   
830.000000	1.420781   
830.500000	1.342849   
831.000000	1.353851   
831.500000	1.390282   
832.000000	1.379033   
832.500000	1.368541   
833.000000	1.356487   
833.500000	1.284363   
834.000000	1.171940   
834.500000	1.090777   
835.000000	1.065803   
835.500000	1.049385   
836.000000	1.068235   
836.500000	1.102226   
837.000000	1.082959   
837.500000	1.025818   
838.000000	0.951291   
838.500000	0.878174   
839.000000	0.805797   
839.500000	0.778367   
840.000000	0.800641   
840.500000	0.807807   
841.000000	0.838599   
841.500000	0.881669   
842.000000	0.916914   
842.500000	0.897257   
843.000000	0.837411   
843.500000	0.771855   
844.000000	0.659124   
844.500000	0.511729   
845.000000	0.414300   
845.500000	0.371884   
846.000000	0.376910   
846.500000	0.397356   
847.000000	0.445897   
847.500000	0.494645   
848.000000	0.496001   
848.500000	0.480183   
849.000000	0.435144   
849.500000	0.397285   
850.000000	0.369896   
850.500000	0.303912   
851.000000	0.254502   
851.500000	0.216341   
852.000000	0.198586   
852.500000	0.188400   
853.000000	0.199552   
853.500000	0.281558   
854.000000	0.342063   
854.500000	0.376914   
855.000000	0.393957   
855.500000	0.374313   
856.000000	0.324983   
856.500000	0.226183   
857.000000	0.166682   
857.500000	0.110888   
858.000000	0.077148   
858.500000	0.050205   
859.000000	0.043588   
859.500000	0.054840   
860.000000	0.043011   
860.500000	0.030018   
861.000000	0.009434   
861.500000	-0.000795  
862.000000	-0.017760  
862.500000	-0.008851  
863.000000	0.020092   
863.500000	0.031942   
864.000000	0.047751   
864.500000	0.033183   
865.000000	0.043415   
865.500000	0.065246   
866.000000	0.110768   
866.500000	0.171606   
867.000000	0.195725   
867.500000	0.189428   
868.000000	0.101218   
868.500000	-0.021176  
869.000000	-0.119987  
869.500000	-0.168495  
870.000000	-0.146196  
870.500000	-0.082959  
871.000000	0.007415   
871.500000	0.056519   
872.000000	0.044100   
872.500000	-0.014025  
873.000000	-0.079393  
873.500000	-0.101961  
874.000000	-0.091113  
874.500000	-0.034623  
875.000000	0.048508   
875.500000	0.109818   
876.000000	0.091705   
876.500000	-0.009578  
877.000000	-0.102651  
877.500000	-0.202400  
878.000000	-0.267766  
878.500000	-0.238597  
879.000000	-0.145465  
879.500000	-0.046619  
880.000000	-0.014732  
880.500000	0.019161   
881.000000	0.034953   
881.500000	0.013816   
882.000000	0.033293   
882.500000	0.065081   
883.000000	0.103230   
883.500000	0.098337   
884.000000	0.062211   
884.500000	0.007525   
885.000000	-0.057489  
885.500000	-0.071647  
886.000000	-0.091382  
886.500000	-0.087458  
887.000000	-0.051554  
887.500000	-0.032181  
888.000000	-0.038790  
888.500000	-0.046042  
889.000000	-0.030120  
889.500000	-0.040486  
890.000000	-0.052768  
890.500000	-0.013211  
891.000000	0.039565   
891.500000	0.065070   
892.000000	0.068892   
892.500000	0.073807   
893.000000	0.045487   
893.500000	-0.018424  
894.000000	-0.046404  
894.500000	-0.039601  
895.000000	-0.004606  
895.500000	0.033204   
896.000000	0.092092   
896.500000	0.142263   

