PE FL                   SPECTRUM    ASCII       PEDS        1.60        
  -1
S00B87~1.SP
24/04/11
16:19:00.00
24/04/11
16:19:00.00
Jan

896.500000
1









LS55
405.00
5.00
5.00
SCAN
1
20
100
100
0
400
0
1
0
1
5
ON
736 405 
1 0 0
#HDR
-1
-1
#GR
NM

0.00002384185791015625
0.0
450.000000
0.500000
894
8
366.554551
-0.256816
#DATA
450.000000	1.004000   
450.500000	0.514779   
451.000000	0.171781   
451.500000	-0.090419  
452.000000	-0.193749  
452.500000	-0.256816  
453.000000	-0.209270  
453.500000	-0.192640  
454.000000	-0.132293  
454.500000	0.000146   
455.000000	0.135389   
455.500000	0.254517   
456.000000	0.293990   
456.500000	0.301601   
457.000000	0.206636   
457.500000	0.097448   
458.000000	0.013860   
458.500000	0.011293   
459.000000	0.074890   
459.500000	0.164456   
460.000000	0.273580   
460.500000	0.330014   
461.000000	0.324732   
461.500000	0.267955   
462.000000	0.208810   
462.500000	0.212656   
463.000000	0.212667   
463.500000	0.252033   
464.000000	0.287168   
464.500000	0.274235   
465.000000	0.178951   
465.500000	0.047254   
466.000000	0.005031   
466.500000	-0.029807  
467.000000	-0.007884  
467.500000	0.056632   
468.000000	0.141474   
468.500000	0.154176   
469.000000	0.116063   
469.500000	0.122372   
470.000000	0.096849   
470.500000	0.072769   
471.000000	0.065152   
471.500000	0.129766   
472.000000	0.182671   
472.500000	0.221706   
473.000000	0.254233   
473.500000	0.253389   
474.000000	0.212400   
474.500000	0.130734   
475.000000	0.066230   
475.500000	0.024202   
476.000000	0.021627   
476.500000	0.061248   
477.000000	0.108519   
477.500000	0.167363   
478.000000	0.206747   
478.500000	0.198218   
479.000000	0.179820   
479.500000	0.152790   
480.000000	0.145254   
480.500000	0.124282   
481.000000	0.146853   
481.500000	0.210352   
482.000000	0.229987   
482.500000	0.231439   
483.000000	0.196641   
483.500000	0.151857   
484.000000	0.078499   
484.500000	0.085096   
485.000000	0.131435   
485.500000	0.149306   
486.000000	0.172614   
486.500000	0.174894   
487.000000	0.144228   
487.500000	0.088584   
488.000000	0.084671   
488.500000	0.088363   
489.000000	0.095103   
489.500000	0.099766   
490.000000	0.096630   
490.500000	0.094510   
491.000000	0.114441   
491.500000	0.208452   
492.000000	0.324196   
492.500000	0.459083   
493.000000	0.552604   
493.500000	0.599423   
494.000000	0.580666   
494.500000	0.543302   
495.000000	0.505831   
495.500000	0.443710   
496.000000	0.406287   
496.500000	0.347384   
497.000000	0.302692   
497.500000	0.271042   
498.000000	0.257074   
498.500000	0.279931   
499.000000	0.332411   
499.500000	0.436712   
500.000000	0.506011   
500.500000	0.555296   
501.000000	0.592131   
501.500000	0.611833   
502.000000	0.622115   
502.500000	0.630294   
503.000000	0.685419   
503.500000	0.750743   
504.000000	0.820688   
504.500000	0.906139   
505.000000	0.997589   
505.500000	1.032434   
506.000000	1.005213   
506.500000	0.963641   
507.000000	0.931402   
507.500000	0.930595   
508.000000	0.958391   
508.500000	1.043784   
509.000000	1.112304   
509.500000	1.166923   
510.000000	1.215332   
510.500000	1.278883   
511.000000	1.384528   
511.500000	1.473755   
512.000000	1.573170   
512.500000	1.621174   
513.000000	1.630766   
513.500000	1.640519   
514.000000	1.677064   
514.500000	1.764697   
515.000000	1.898120   
515.500000	2.097239   
516.000000	2.273525   
516.500000	2.405202   
517.000000	2.526660   
517.500000	2.637925   
518.000000	2.713897   
518.500000	2.711356   
519.000000	2.702957   
519.500000	2.649493   
520.000000	2.545897   
520.500000	2.458135   
521.000000	2.424961   
521.500000	2.448619   
522.000000	2.456148   
522.500000	2.515103   
523.000000	2.600680   
523.500000	2.670398   
524.000000	2.726328   
524.500000	2.806810   
525.000000	2.919419   
525.500000	3.010712   
526.000000	3.150100   
526.500000	3.333137   
527.000000	3.492480   
527.500000	3.658749   
528.000000	3.891679   
528.500000	4.107439   
529.000000	4.297782   
529.500000	4.540807   
530.000000	4.810526   
530.500000	4.982938   
531.000000	5.134352   
531.500000	5.318721   
532.000000	5.434018   
532.500000	5.518484   
533.000000	5.647862   
533.500000	5.807799   
534.000000	5.891890   
534.500000	6.064936   
535.000000	6.312372   
535.500000	6.568215   
536.000000	6.911675   
536.500000	7.299205   
537.000000	7.754434   
537.500000	8.095213   
538.000000	8.488046   
538.500000	8.892320   
539.000000	9.296157   
539.500000	9.776107   
540.000000	10.216252  
540.500000	10.557166  
541.000000	10.758575  
541.500000	10.891666  
542.000000	10.958484  
542.500000	11.041100  
543.000000	11.182493  
543.500000	11.320398  
544.000000	11.399269  
544.500000	11.434717  
545.000000	11.334680  
545.500000	11.149719  
546.000000	10.960406  
546.500000	10.734209  
547.000000	10.498888  
547.500000	10.208827  
548.000000	10.012031  
548.500000	9.800538   
549.000000	9.642166   
549.500000	9.584111   
550.000000	9.633096   
550.500000	9.686105   
551.000000	9.698029   
551.500000	9.800313   
552.000000	9.848987   
552.500000	9.834781   
553.000000	9.729176   
553.500000	9.689448   
554.000000	9.715122   
554.500000	9.758877   
555.000000	9.908920   
555.500000	10.160200  
556.000000	10.492302  
556.500000	10.697545  
557.000000	10.923441  
557.500000	11.119389  
558.000000	11.314367  
558.500000	11.483916  
559.000000	11.721256  
559.500000	12.122185  
560.000000	12.533506  
560.500000	13.000743  
561.000000	13.541333  
561.500000	14.167406  
562.000000	14.729346  
562.500000	15.239936  
563.000000	15.806545  
563.500000	16.286473  
564.000000	16.637556  
564.500000	17.011267  
565.000000	17.338317  
565.500000	17.567343  
566.000000	17.903252  
566.500000	18.445853  
567.000000	19.176430  
567.500000	19.856313  
568.000000	20.717474  
568.500000	21.592408  
569.000000	22.311122  
569.500000	22.977452  
570.000000	23.745940  
570.500000	24.536820  
571.000000	25.203970  
571.500000	26.060432  
572.000000	27.066352  
572.500000	28.174966  
573.000000	29.232248  
573.500000	30.382328  
574.000000	31.491165  
574.500000	32.333038  
575.000000	33.066256  
575.500000	33.692944  
576.000000	34.448235  
576.500000	35.069521  
577.000000	35.729057  
577.500000	36.474812  
578.000000	37.120191  
578.500000	37.875860  
579.000000	38.593996  
579.500000	39.536688  
580.000000	40.474682  
580.500000	41.141705  
581.000000	41.961521  
581.500000	42.762630  
582.000000	43.810142  
582.500000	44.858254  
583.000000	46.113129  
583.500000	47.400324  
584.000000	48.263174  
584.500000	48.997326  
585.000000	49.547283  
585.500000	50.221599  
586.000000	50.999400  
586.500000	52.108012  
587.000000	53.439877  
587.500000	54.871948  
588.000000	56.217410  
588.500000	57.430217  
589.000000	58.521640  
589.500000	59.605860  
590.000000	60.895259  
590.500000	62.242862  
591.000000	63.832033  
591.500000	65.477703  
592.000000	67.154194  
592.500000	68.554083  
593.000000	69.808365  
593.500000	71.075126  
594.000000	72.408460  
594.500000	73.923217  
595.000000	75.795545  
595.500000	78.004092  
596.000000	80.253764  
596.500000	82.350385  
597.000000	84.251858  
597.500000	86.097191  
598.000000	87.543035  
598.500000	88.921732  
599.000000	90.338215  
599.500000	92.017233  
600.000000	93.867243  
600.500000	96.091755  
601.000000	98.665617  
601.500000	101.332272 
602.000000	104.147899 
602.500000	106.979580 
603.000000	109.660252 
603.500000	111.928920 
604.000000	114.006239 
604.500000	115.932137 
605.000000	118.090137 
605.500000	120.427009 
606.000000	123.212473 
606.500000	126.148361 
607.000000	128.952734 
607.500000	131.803473 
608.000000	134.253124 
608.500000	136.918755 
609.000000	139.406710 
609.500000	142.296883 
610.000000	145.495064 
610.500000	148.733571 
611.000000	151.866962 
611.500000	154.532480 
612.000000	157.307669 
612.500000	159.868356 
613.000000	162.765359 
613.500000	166.196912 
614.000000	169.809547 
614.500000	173.649818 
615.000000	177.317354 
615.500000	181.002369 
616.000000	184.052679 
616.500000	187.126840 
617.000000	190.343970 
617.500000	193.638423 
618.000000	197.163391 
618.500000	201.037306 
619.000000	205.495411 
619.500000	209.659272 
620.000000	213.969037 
620.500000	217.902144 
621.000000	221.678604 
621.500000	225.424881 
622.000000	229.056051 
622.500000	233.062478 
623.000000	237.254215 
623.500000	242.130630 
624.000000	246.684313 
624.500000	251.110985 
625.000000	255.596632 
625.500000	259.398237 
626.000000	262.546289 
626.500000	265.585450 
627.000000	269.239860 
627.500000	272.987751 
628.000000	277.053634 
628.500000	281.989641 
629.000000	287.170727 
629.500000	291.844317 
630.000000	296.143760 
630.500000	300.181868 
631.000000	303.934951 
631.500000	307.646328 
632.000000	311.362287 
632.500000	314.809539 
633.000000	317.977202 
633.500000	321.021667 
634.000000	324.067374 
634.500000	326.882033 
635.000000	330.222680 
635.500000	333.714241 
636.000000	336.833576 
636.500000	339.703094 
637.000000	342.099133 
637.500000	344.331838 
638.000000	346.046226 
638.500000	348.174567 
639.000000	350.443513 
639.500000	352.776135 
640.000000	355.310254 
640.500000	357.569224 
641.000000	359.829988 
641.500000	361.615263 
642.000000	363.312834 
642.500000	364.109883 
643.000000	364.740775 
643.500000	365.247003 
644.000000	365.607907 
644.500000	366.001096 
645.000000	366.178137 
645.500000	366.554551 
646.000000	366.466445 
646.500000	366.398864 
647.000000	365.832972 
647.500000	364.907656 
648.000000	364.080244 
648.500000	363.469586 
649.000000	362.517250 
649.500000	361.384788 
650.000000	360.313818 
650.500000	358.899625 
651.000000	357.595727 
651.500000	356.388834 
652.000000	355.849897 
652.500000	354.630513 
653.000000	353.120270 
653.500000	351.387730 
654.000000	348.976504 
654.500000	346.306398 
655.000000	343.358257 
655.500000	341.278615 
656.000000	338.997964 
656.500000	336.234497 
657.000000	333.250855 
657.500000	329.549269 
658.000000	325.435745 
658.500000	321.068742 
659.000000	317.685974 
659.500000	314.867124 
660.000000	311.717654 
660.500000	308.925612 
661.000000	306.086148 
661.500000	302.913326 
662.000000	299.236614 
662.500000	295.557293 
663.000000	291.802502 
663.500000	287.227871 
664.000000	282.500205 
664.500000	277.262617 
665.000000	271.691823 
665.500000	265.884419 
666.000000	260.425400 
666.500000	255.358634 
667.000000	250.235528 
667.500000	245.602341 
668.000000	241.079196 
668.500000	236.457354 
669.000000	231.714126 
669.500000	227.048833 
670.000000	222.194489 
670.500000	217.072372 
671.000000	212.254599 
671.500000	207.462152 
672.000000	202.673161 
672.500000	197.948940 
673.000000	193.265975 
673.500000	188.542269 
674.000000	183.467599 
674.500000	178.527927 
675.000000	173.803510 
675.500000	169.149580 
676.000000	164.901777 
676.500000	160.928580 
677.000000	157.326256 
677.500000	153.649855 
678.000000	149.954792 
678.500000	145.926166 
679.000000	141.858168 
679.500000	137.814630 
680.000000	133.424842 
680.500000	129.227298 
681.000000	124.956198 
681.500000	120.944964 
682.000000	116.977309 
682.500000	113.657907 
683.000000	110.627580 
683.500000	107.759864 
684.000000	105.201788 
684.500000	102.325126 
685.000000	99.674734  
685.500000	96.796443  
686.000000	94.317398  
686.500000	91.787556  
687.000000	89.269677  
687.500000	87.092881  
688.000000	84.712170  
688.500000	82.268157  
689.000000	79.739205  
689.500000	77.554593  
690.000000	75.403901  
690.500000	73.129745  
691.000000	70.824035  
691.500000	68.535168  
692.000000	66.411907  
692.500000	64.286445  
693.000000	62.322918  
693.500000	60.539755  
694.000000	58.678834  
694.500000	56.797172  
695.000000	55.138935  
695.500000	53.709697  
696.000000	52.363910  
696.500000	51.083886  
697.000000	49.911634  
697.500000	48.573213  
698.000000	46.979461  
698.500000	45.242048  
699.000000	43.735250  
699.500000	42.480397  
700.000000	41.412016  
700.500000	40.544395  
701.000000	39.807025  
701.500000	39.073558  
702.000000	38.106287  
702.500000	37.158723  
703.000000	36.173256  
703.500000	35.046393  
704.000000	33.844601  
704.500000	32.774172  
705.000000	31.968256  
705.500000	31.221584  
706.000000	30.665881  
706.500000	30.161168  
707.000000	29.529113  
707.500000	28.750573  
708.000000	27.828771  
708.500000	26.940610  
709.000000	26.229250  
709.500000	25.642703  
710.000000	25.160636  
710.500000	24.606777  
711.000000	24.086250  
711.500000	23.474914  
712.000000	22.885497  
712.500000	22.435790  
713.000000	21.982122  
713.500000	21.632207  
714.000000	21.269499  
714.500000	20.948265  
715.000000	20.594014  
715.500000	20.195927  
716.000000	19.850866  
716.500000	19.378625  
717.000000	18.888116  
717.500000	18.352037  
718.000000	17.881686  
718.500000	17.410619  
719.000000	16.926512  
719.500000	16.498866  
720.000000	15.993003  
720.500000	15.502834  
721.000000	14.998499  
721.500000	14.649576  
722.000000	14.398732  
722.500000	14.221487  
723.000000	14.205873  
723.500000	14.159996  
724.000000	14.149901  
724.500000	14.057764  
725.000000	13.926545  
725.500000	13.670526  
726.000000	13.254426  
726.500000	12.832968  
727.000000	12.389628  
727.500000	12.006142  
728.000000	11.683576  
728.500000	11.543588  
729.000000	11.474504  
729.500000	11.364666  
730.000000	11.219628  
730.500000	11.020745  
731.000000	10.845931  
731.500000	10.577261  
732.000000	10.398664  
732.500000	10.256046  
733.000000	10.078918  
733.500000	9.903259   
734.000000	9.639983   
734.500000	9.428903   
735.000000	9.135807   
735.500000	8.972821   
736.000000	8.877048   
736.500000	8.881074   
737.000000	8.971582   
737.500000	8.989322   
738.000000	8.964753   
738.500000	8.811035   
739.000000	8.581565   
739.500000	8.270877   
740.000000	7.954003   
740.500000	7.707131   
741.000000	7.573636   
741.500000	7.505484   
742.000000	7.508714   
742.500000	7.529348   
743.000000	7.522487   
743.500000	7.514447   
744.000000	7.443254   
744.500000	7.365666   
745.000000	7.263011   
745.500000	7.203602   
746.000000	7.140185   
746.500000	7.070703   
747.000000	7.017417   
747.500000	6.906764   
748.000000	6.801953   
748.500000	6.684222   
749.000000	6.612185   
749.500000	6.564725   
750.000000	6.497042   
750.500000	6.422172   
751.000000	6.366602   
751.500000	6.323975   
752.000000	6.275591   
752.500000	6.251975   
753.000000	6.261669   
753.500000	6.262328   
754.000000	6.150552   
754.500000	6.038562   
755.000000	5.854129   
755.500000	5.651797   
756.000000	5.482452   
756.500000	5.352662   
757.000000	5.292376   
757.500000	5.180823   
758.000000	5.126871   
758.500000	5.060439   
759.000000	4.998220   
759.500000	4.926775   
760.000000	4.855877   
760.500000	4.814910   
761.000000	4.727808   
761.500000	4.637820   
762.000000	4.561487   
762.500000	4.526233   
763.000000	4.486346   
763.500000	4.471710   
764.000000	4.525630   
764.500000	4.604200   
765.000000	4.627827   
765.500000	4.674525   
766.000000	4.706988   
766.500000	4.646204   
767.000000	4.542961   
767.500000	4.453576   
768.000000	4.361168   
768.500000	4.234922   
769.000000	4.167139   
769.500000	4.086680   
770.000000	3.978521   
770.500000	3.875365   
771.000000	3.798875   
771.500000	3.745747   
772.000000	3.725866   
772.500000	3.763786   
773.000000	3.794480   
773.500000	3.833905   
774.000000	3.884042   
774.500000	3.924615   
775.000000	3.879899   
775.500000	3.822324   
776.000000	3.735122   
776.500000	3.571137   
777.000000	3.451024   
777.500000	3.386679   
778.000000	3.371853   
778.500000	3.370161   
779.000000	3.423896   
779.500000	3.503126   
780.000000	3.519551   
780.500000	3.521098   
781.000000	3.490994   
781.500000	3.401653   
782.000000	3.263870   
782.500000	3.140087   
783.000000	3.078426   
783.500000	3.022120   
784.000000	3.000604   
784.500000	3.054374   
785.000000	3.110510   
785.500000	3.116486   
786.000000	3.115256   
786.500000	3.109736   
787.000000	3.110076   
787.500000	3.067758   
788.000000	3.051788   
788.500000	3.047437   
789.000000	3.018831   
789.500000	3.001074   
790.000000	2.971495   
790.500000	2.964944   
791.000000	2.963953   
791.500000	2.955910   
792.000000	2.935762   
792.500000	2.928333   
793.000000	2.954040   
793.500000	2.942126   
794.000000	2.906150   
794.500000	2.900252   
795.000000	2.893764   
795.500000	2.849087   
796.000000	2.799025   
796.500000	2.765014   
797.000000	2.689651   
797.500000	2.552664   
798.000000	2.440699   
798.500000	2.350801   
799.000000	2.304335   
799.500000	2.309998   
800.000000	2.409131   
800.500000	2.515356   
801.000000	2.616625   
801.500000	2.667378   
802.000000	2.635968   
802.500000	2.541912   
803.000000	2.448365   
803.500000	2.420300   
804.000000	2.394961   
804.500000	2.418285   
805.000000	2.489547   
805.500000	2.554523   
806.000000	2.570799   
806.500000	2.534536   
807.000000	2.480211   
807.500000	2.372345   
808.000000	2.260183   
808.500000	2.185792   
809.000000	2.191209   
809.500000	2.220053   
810.000000	2.293178   
810.500000	2.343105   
811.000000	2.355465   
811.500000	2.298170   
812.000000	2.156705   
812.500000	1.989836   
813.000000	1.861228   
813.500000	1.826821   
814.000000	1.806812   
814.500000	1.798966   
815.000000	1.824337   
815.500000	1.843241   
816.000000	1.839734   
816.500000	1.872228   
817.000000	1.933302   
817.500000	1.979048   
818.000000	1.987402   
818.500000	1.936217   
819.000000	1.862365   
819.500000	1.747267   
820.000000	1.725899   
820.500000	1.762860   
821.000000	1.901990   
821.500000	2.105907   
822.000000	2.267747   
822.500000	2.378769   
823.000000	2.407224   
823.500000	2.452998   
824.000000	2.468710   
824.500000	2.493560   
825.000000	2.546211   
825.500000	2.582857   
826.000000	2.615402   
826.500000	2.598250   
827.000000	2.521632   
827.500000	2.384248   
828.000000	2.218423   
828.500000	2.006564   
829.000000	1.816072   
829.500000	1.708870   
830.000000	1.681131   
830.500000	1.696395   
831.000000	1.753174   
831.500000	1.814094   
832.000000	1.777513   
832.500000	1.676161   
833.000000	1.533523   
833.500000	1.416662   
834.000000	1.330619   
834.500000	1.295382   
835.000000	1.294146   
835.500000	1.264725   
836.000000	1.245699   
836.500000	1.200270   
837.000000	1.164760   
837.500000	1.131226   
838.000000	1.102515   
838.500000	1.073903   
839.000000	1.023450   
839.500000	0.991367   
840.000000	0.957461   
840.500000	0.938059   
841.000000	0.938840   
841.500000	0.919955   
842.000000	0.882398   
842.500000	0.816747   
843.000000	0.708814   
843.500000	0.606254   
844.000000	0.539942   
844.500000	0.550974   
845.000000	0.577578   
845.500000	0.630315   
846.000000	0.682760   
846.500000	0.671884   
847.000000	0.652660   
847.500000	0.625217   
848.000000	0.607335   
848.500000	0.571437   
849.000000	0.522562   
849.500000	0.474998   
850.000000	0.382753   
850.500000	0.268868   
851.000000	0.178315   
851.500000	0.112352   
852.000000	0.082768   
852.500000	0.083397   
853.000000	0.116575   
853.500000	0.144619   
854.000000	0.129604   
854.500000	0.123463   
855.000000	0.104654   
855.500000	0.110213   
856.000000	0.109239   
856.500000	0.122200   
857.000000	0.154406   
857.500000	0.152888   
858.000000	0.138640   
858.500000	0.074306   
859.000000	0.026168   
859.500000	-0.011717  
860.000000	-0.034211  
860.500000	-0.044523  
861.000000	-0.038064  
861.500000	-0.006634  
862.000000	-0.013680  
862.500000	0.000493   
863.000000	0.029690   
863.500000	0.073233   
864.000000	0.092293   
864.500000	0.090307   
865.000000	0.106684   
865.500000	0.072142   
866.000000	0.041990   
866.500000	0.017538   
867.000000	-0.016417  
867.500000	-0.061860  
868.000000	-0.118263  
868.500000	-0.152335  
869.000000	-0.203769  
869.500000	-0.209473  
870.000000	-0.162161  
870.500000	-0.126821  
871.000000	-0.078179  
871.500000	-0.040298  
872.000000	0.000196   
872.500000	-0.001128  
873.000000	-0.034690  
873.500000	-0.049914  
874.000000	-0.094556  
874.500000	-0.107779  
875.000000	-0.103725  
875.500000	-0.068367  
876.000000	0.007161   
876.500000	0.053491   
877.000000	0.079840   
877.500000	0.041883   
878.000000	0.000975   
878.500000	-0.062768  
879.000000	-0.122100  
879.500000	-0.116640  
880.000000	-0.102675  
880.500000	-0.057111  
881.000000	-0.051265  
881.500000	-0.069179  
882.000000	-0.098200  
882.500000	-0.112480  
883.000000	-0.106426  
883.500000	-0.114124  
884.000000	-0.083478  
884.500000	-0.056207  
885.000000	-0.083526  
885.500000	-0.146025  
886.000000	-0.174215  
886.500000	-0.185198  
887.000000	-0.187187  
887.500000	-0.113666  
888.000000	0.009391   
888.500000	0.115059   
889.000000	0.154319   
889.500000	0.155968   
890.000000	0.107708   
890.500000	0.019974   
891.000000	-0.052990  
891.500000	-0.089946  
892.000000	-0.081719  
892.500000	-0.038827  
893.000000	0.029769   
893.500000	0.090302   
894.000000	0.104213   
894.500000	0.107775   
895.000000	0.094805   
895.500000	0.049539   
896.000000	0.006884   
896.500000	-0.021710  

