PE FL                   SPECTRUM    ASCII       PEDS        1.60        
  -1
S003BB~1.SP
24/04/11
16:11:53.00
24/04/11
16:11:53.00
Jan

896.500000
1









LS55
405.00
5.00
5.00
SCAN
1
20
100
100
0
400
0
1
0
1
5
ON
736 405 
1 0 0
#HDR
-1
-1
#GR
NM

0.00002384185791015625
0.0
450.000000
0.500000
894
8
395.459805
-0.325296
#DATA
450.000000	0.725000   
450.500000	0.502150   
451.000000	0.307673   
451.500000	0.163330   
452.000000	0.117725   
452.500000	0.083339   
453.000000	0.095779   
453.500000	0.082936   
454.000000	0.056545   
454.500000	-0.005179  
455.000000	-0.070463  
455.500000	-0.097905  
456.000000	-0.125398  
456.500000	-0.089742  
457.000000	-0.027230  
457.500000	0.065693   
458.000000	0.140038   
458.500000	0.186758   
459.000000	0.210326   
459.500000	0.190901   
460.000000	0.175892   
460.500000	0.178651   
461.000000	0.184198   
461.500000	0.200267   
462.000000	0.235936   
462.500000	0.282942   
463.000000	0.314387   
463.500000	0.350846   
464.000000	0.388743   
464.500000	0.372141   
465.000000	0.331053   
465.500000	0.300363   
466.000000	0.249842   
466.500000	0.191920   
467.000000	0.164166   
467.500000	0.194417   
468.000000	0.216972   
468.500000	0.223118   
469.000000	0.260100   
469.500000	0.268500   
470.000000	0.259443   
470.500000	0.247936   
471.000000	0.246476   
471.500000	0.241406   
472.000000	0.191619   
472.500000	0.142432   
473.000000	0.080211   
473.500000	0.038231   
474.000000	0.008018   
474.500000	-0.001565  
475.000000	0.030760   
475.500000	0.032178   
476.000000	-0.000760  
476.500000	-0.069465  
477.000000	-0.112094  
477.500000	-0.123400  
478.000000	-0.089385  
478.500000	0.021398   
479.000000	0.125178   
479.500000	0.196250   
480.000000	0.191847   
480.500000	0.172966   
481.000000	0.125187   
481.500000	0.073558   
482.000000	0.062860   
482.500000	0.039428   
483.000000	0.040821   
483.500000	0.037903   
484.000000	0.074348   
484.500000	0.122538   
485.000000	0.173142   
485.500000	0.237931   
486.000000	0.245610   
486.500000	0.219914   
487.000000	0.195280   
487.500000	0.162090   
488.000000	0.129998   
488.500000	0.137005   
489.000000	0.152987   
489.500000	0.162042   
490.000000	0.175302   
490.500000	0.224081   
491.000000	0.253361   
491.500000	0.258448   
492.000000	0.268575   
492.500000	0.245525   
493.000000	0.219320   
493.500000	0.175339   
494.000000	0.181332   
494.500000	0.207656   
495.000000	0.253480   
495.500000	0.316450   
496.000000	0.337738   
496.500000	0.341959   
497.000000	0.293814   
497.500000	0.222504   
498.000000	0.181692   
498.500000	0.197868   
499.000000	0.281996   
499.500000	0.378484   
500.000000	0.480465   
500.500000	0.524690   
501.000000	0.527938   
501.500000	0.515586   
502.000000	0.489424   
502.500000	0.526294   
503.000000	0.593636   
503.500000	0.674035   
504.000000	0.734090   
504.500000	0.789168   
505.000000	0.841612   
505.500000	0.847129   
506.000000	0.853458   
506.500000	0.867283   
507.000000	0.904816   
507.500000	0.925239   
508.000000	0.971604   
508.500000	1.037274   
509.000000	1.117478   
509.500000	1.208851   
510.000000	1.314699   
510.500000	1.396230   
511.000000	1.471630   
511.500000	1.551951   
512.000000	1.571213   
512.500000	1.546200   
513.000000	1.520610   
513.500000	1.543938   
514.000000	1.582400   
514.500000	1.709311   
515.000000	1.931291   
515.500000	2.172814   
516.000000	2.343786   
516.500000	2.473912   
517.000000	2.534027   
517.500000	2.474684   
518.000000	2.373927   
518.500000	2.288363   
519.000000	2.281910   
519.500000	2.287589   
520.000000	2.358669   
520.500000	2.418547   
521.000000	2.493653   
521.500000	2.548413   
522.000000	2.561768   
522.500000	2.595834   
523.000000	2.612623   
523.500000	2.697897   
524.000000	2.805536   
524.500000	2.985376   
525.000000	3.151269   
525.500000	3.306515   
526.000000	3.463792   
526.500000	3.607276   
527.000000	3.817910   
527.500000	4.040814   
528.000000	4.278601   
528.500000	4.517502   
529.000000	4.756910   
529.500000	4.923805   
530.000000	4.983586   
530.500000	5.055222   
531.000000	5.123855   
531.500000	5.217196   
532.000000	5.326244   
532.500000	5.504380   
533.000000	5.704005   
533.500000	5.880990   
534.000000	6.116098   
534.500000	6.360528   
535.000000	6.611012   
535.500000	6.810929   
536.000000	7.051094   
536.500000	7.328076   
537.000000	7.571608   
537.500000	7.877884   
538.000000	8.247467   
538.500000	8.682799   
539.000000	9.064285   
539.500000	9.470020   
540.000000	9.935858   
540.500000	10.310439  
541.000000	10.623554  
541.500000	10.946697  
542.000000	11.175348  
542.500000	11.259246  
543.000000	11.220907  
543.500000	11.196454  
544.000000	11.121330  
544.500000	11.051708  
545.000000	11.076413  
545.500000	11.097820  
546.000000	11.135395  
546.500000	11.117189  
547.000000	11.104977  
547.500000	11.086421  
548.000000	11.029144  
548.500000	10.919812  
549.000000	10.697907  
549.500000	10.451055  
550.000000	10.185222  
550.500000	9.922621   
551.000000	9.752280   
551.500000	9.731851   
552.000000	9.778434   
552.500000	9.919897   
553.000000	10.058502  
553.500000	10.226087  
554.000000	10.337847  
554.500000	10.424588  
555.000000	10.572291  
555.500000	10.704586  
556.000000	10.918131  
556.500000	11.111562  
557.000000	11.347417  
557.500000	11.569328  
558.000000	11.784918  
558.500000	12.071975  
559.000000	12.336218  
559.500000	12.702942  
560.000000	13.088118  
560.500000	13.530204  
561.000000	13.947649  
561.500000	14.283927  
562.000000	14.704194  
562.500000	15.059259  
563.000000	15.425803  
563.500000	15.840558  
564.000000	16.380534  
564.500000	16.958630  
565.000000	17.566794  
565.500000	18.351168  
566.000000	19.178471  
566.500000	19.874521  
567.000000	20.602439  
567.500000	21.261649  
568.000000	21.829847  
568.500000	22.449730  
569.000000	23.245230  
569.500000	24.216458  
570.000000	25.110161  
570.500000	26.192179  
571.000000	27.209551  
571.500000	28.069933  
572.000000	28.847389  
572.500000	29.612022  
573.000000	30.391825  
573.500000	31.081012  
574.000000	32.023692  
574.500000	33.030491  
575.000000	34.166762  
575.500000	35.225873  
576.000000	36.216447  
576.500000	37.017584  
577.000000	37.668204  
577.500000	38.238922  
578.000000	38.720723  
578.500000	39.397398  
579.000000	40.021532  
579.500000	40.689098  
580.000000	41.484233  
580.500000	42.513213  
581.000000	43.579391  
581.500000	44.602359  
582.000000	45.803601  
582.500000	46.848055  
583.000000	47.659391  
583.500000	48.464126  
584.000000	49.462916  
584.500000	50.540333  
585.000000	51.524448  
585.500000	52.723879  
586.000000	53.780519  
586.500000	54.709426  
587.000000	55.815638  
587.500000	57.145766  
588.000000	58.558005  
588.500000	59.843916  
589.000000	61.210005  
589.500000	62.283786  
590.000000	63.093209  
590.500000	64.067491  
591.000000	65.289009  
591.500000	66.900506  
592.000000	68.853745  
592.500000	71.253213  
593.000000	73.779269  
593.500000	75.868818  
594.000000	77.701068  
594.500000	79.134165  
595.000000	80.483942  
595.500000	81.838781  
596.000000	83.326636  
596.500000	85.285786  
597.000000	87.297884  
597.500000	89.384834  
598.000000	91.260022  
598.500000	93.056103  
599.000000	95.015198  
599.500000	96.948165  
600.000000	99.089257  
600.500000	101.345847 
601.000000	103.650196 
601.500000	105.949022 
602.000000	108.249857 
602.500000	110.771313 
603.000000	113.248784 
603.500000	115.523769 
604.000000	117.874037 
604.500000	120.325795 
605.000000	122.739402 
605.500000	125.156909 
606.000000	127.887063 
606.500000	130.808215 
607.000000	133.562968 
607.500000	136.588120 
608.000000	140.015027 
608.500000	143.206148 
609.000000	146.399914 
609.500000	149.689833 
610.000000	152.955660 
610.500000	155.650282 
611.000000	158.207658 
611.500000	161.293846 
612.000000	164.449988 
612.500000	167.831664 
613.000000	171.633706 
613.500000	175.625296 
614.000000	179.512660 
614.500000	183.151506 
615.000000	187.102536 
615.500000	190.876588 
616.000000	194.605708 
616.500000	198.486189 
617.000000	202.421688 
617.500000	206.464510 
618.000000	210.482235 
618.500000	214.900133 
619.000000	219.349166 
619.500000	223.712077 
620.000000	228.139029 
620.500000	232.398756 
621.000000	236.457998 
621.500000	240.497269 
622.000000	244.806500 
622.500000	249.064146 
623.000000	252.995066 
623.500000	256.755803 
624.000000	260.368521 
624.500000	263.498985 
625.000000	267.137369 
625.500000	271.486417 
626.000000	276.183204 
626.500000	281.062291 
627.000000	286.088571 
627.500000	290.946888 
628.000000	294.973738 
628.500000	298.958276 
629.000000	303.251035 
629.500000	307.601033 
630.000000	312.218538 
630.500000	316.990218 
631.000000	321.989588 
631.500000	326.441307 
632.000000	330.329760 
632.500000	334.364987 
633.000000	338.136833 
633.500000	341.793801 
634.000000	344.993818 
634.500000	348.296623 
635.000000	351.760638 
635.500000	354.708359 
636.000000	357.728829 
636.500000	360.949090 
637.000000	364.050909 
637.500000	366.820543 
638.000000	369.622116 
638.500000	372.490489 
639.000000	375.278059 
639.500000	378.452849 
640.000000	382.069784 
640.500000	385.651602 
641.000000	388.534664 
641.500000	390.605886 
642.000000	391.483538 
642.500000	391.855057 
643.000000	391.940679 
643.500000	392.069098 
644.000000	392.178066 
644.500000	392.595274 
645.000000	393.325881 
645.500000	393.556925 
646.000000	393.931818 
646.500000	394.670597 
647.000000	395.305970 
647.500000	395.459805 
648.000000	395.283461 
648.500000	394.958627 
649.000000	393.821168 
649.500000	392.487398 
650.000000	391.431311 
650.500000	390.526610 
651.000000	389.523604 
651.500000	388.243001 
652.000000	387.199747 
652.500000	385.943922 
653.000000	384.569343 
653.500000	383.194072 
654.000000	381.575389 
654.500000	379.793358 
655.000000	377.434541 
655.500000	374.542025 
656.000000	370.969341 
656.500000	367.508857 
657.000000	363.636860 
657.500000	359.780641 
658.000000	355.928152 
658.500000	352.000727 
659.000000	348.379265 
659.500000	344.576024 
660.000000	341.241463 
660.500000	337.611651 
661.000000	334.353404 
661.500000	330.900081 
662.000000	326.908074 
662.500000	322.573410 
663.000000	317.744471 
663.500000	312.788430 
664.000000	307.490751 
664.500000	302.123558 
665.000000	296.886749 
665.500000	291.548454 
666.000000	286.169239 
666.500000	281.051454 
667.000000	276.224159 
667.500000	271.709690 
668.000000	267.048623 
668.500000	262.245192 
669.000000	257.226593 
669.500000	251.661658 
670.000000	245.764252 
670.500000	239.640152 
671.000000	233.952122 
671.500000	228.353358 
672.000000	222.982742 
672.500000	217.780543 
673.000000	212.769448 
673.500000	207.967478 
674.000000	203.148226 
674.500000	198.397051 
675.000000	193.857042 
675.500000	189.368886 
676.000000	184.831907 
676.500000	180.086150 
677.000000	175.942589 
677.500000	171.777547 
678.000000	167.451183 
678.500000	163.253129 
679.000000	159.010482 
679.500000	154.458940 
680.000000	149.305538 
680.500000	144.549478 
681.000000	140.105434 
681.500000	135.806239 
682.000000	131.833224 
682.500000	128.400298 
683.000000	125.209881 
683.500000	121.728582 
684.000000	118.465230 
684.500000	115.196372 
685.000000	112.037840 
685.500000	108.768625 
686.000000	105.679844 
686.500000	102.654541 
687.000000	99.563265  
687.500000	96.455287  
688.000000	93.299250  
688.500000	90.382773  
689.000000	87.555552  
689.500000	84.919500  
690.000000	82.588220  
690.500000	80.405994  
691.000000	78.343352  
691.500000	76.254768  
692.000000	74.132851  
692.500000	71.970525  
693.000000	69.734634  
693.500000	67.538092  
694.000000	65.434228  
694.500000	63.470241  
695.000000	61.650610  
695.500000	59.907743  
696.000000	58.283335  
696.500000	56.847328  
697.000000	55.514304  
697.500000	54.232829  
698.000000	52.977187  
698.500000	51.618617  
699.000000	50.183998  
699.500000	48.628165  
700.000000	47.271022  
700.500000	46.006020  
701.000000	44.787100  
701.500000	43.648077  
702.000000	42.394231  
702.500000	41.110389  
703.000000	39.666135  
703.500000	38.352189  
704.000000	37.224322  
704.500000	36.171050  
705.000000	35.332343  
705.500000	34.497105  
706.000000	33.701807  
706.500000	32.915291  
707.000000	32.183660  
707.500000	31.474602  
708.000000	30.715345  
708.500000	30.027528  
709.000000	29.339107  
709.500000	28.670115  
710.000000	28.145775  
710.500000	27.617688  
711.000000	27.011376  
711.500000	26.398888  
712.000000	25.830044  
712.500000	25.295786  
713.000000	24.855293  
713.500000	24.587178  
714.000000	24.284692  
714.500000	23.881868  
715.000000	23.386732  
715.500000	22.673740  
716.000000	21.824441  
716.500000	21.047966  
717.000000	20.403354  
717.500000	19.851029  
718.000000	19.471671  
718.500000	19.232339  
719.000000	18.927808  
719.500000	18.563717  
720.000000	18.221851  
720.500000	17.825376  
721.000000	17.380424  
721.500000	17.053632  
722.000000	16.795404  
722.500000	16.444272  
723.000000	16.011432  
723.500000	15.574755  
724.000000	15.025482  
724.500000	14.518016  
725.000000	14.122847  
725.500000	13.853690  
726.000000	13.628365  
726.500000	13.433547  
727.000000	13.252578  
727.500000	12.997666  
728.000000	12.744907  
728.500000	12.584037  
729.000000	12.448194  
729.500000	12.402558  
730.000000	12.363189  
730.500000	12.371797  
731.000000	12.205640  
731.500000	11.911810  
732.000000	11.606419  
732.500000	11.290018  
733.000000	11.030328  
733.500000	10.793380  
734.000000	10.715838  
734.500000	10.616656  
735.000000	10.502035  
735.500000	10.376280  
736.000000	10.259818  
736.500000	10.095358  
737.000000	9.866910   
737.500000	9.752962   
738.000000	9.640727   
738.500000	9.533894   
739.000000	9.383591   
739.500000	9.308922   
740.000000	9.114734   
740.500000	8.874270   
741.000000	8.619788   
741.500000	8.416816   
742.000000	8.244886   
742.500000	8.120217   
743.000000	8.120679   
743.500000	8.095539   
744.000000	8.075226   
744.500000	7.958228   
745.000000	7.855283   
745.500000	7.730309   
746.000000	7.629968   
746.500000	7.469742   
747.000000	7.269460   
747.500000	7.114345   
748.000000	6.951102   
748.500000	6.813094   
749.000000	6.740588   
749.500000	6.775439   
750.000000	6.761144   
750.500000	6.742729   
751.000000	6.672391   
751.500000	6.513747   
752.000000	6.252933   
752.500000	6.060343   
753.000000	5.926576   
753.500000	5.847825   
754.000000	5.890220   
754.500000	5.920734   
755.000000	5.955565   
755.500000	5.874870   
756.000000	5.803725   
756.500000	5.593419   
757.000000	5.426506   
757.500000	5.351853   
758.000000	5.317556   
758.500000	5.321684   
759.000000	5.383519   
759.500000	5.537491   
760.000000	5.586035   
760.500000	5.677942   
761.000000	5.714998   
761.500000	5.654617   
762.000000	5.520938   
762.500000	5.389287   
763.000000	5.356682   
763.500000	5.296289   
764.000000	5.301128   
764.500000	5.229205   
765.000000	5.108701   
765.500000	4.932883   
766.000000	4.703758   
766.500000	4.498293   
767.000000	4.412285   
767.500000	4.450695   
768.000000	4.509569   
768.500000	4.541628   
769.000000	4.536539   
769.500000	4.478369   
770.000000	4.375369   
770.500000	4.277074   
771.000000	4.185602   
771.500000	4.119296   
772.000000	4.093224   
772.500000	4.059964   
773.000000	4.021816   
773.500000	3.953029   
774.000000	3.902979   
774.500000	3.820103   
775.000000	3.743727   
775.500000	3.710233   
776.000000	3.706808   
776.500000	3.698480   
777.000000	3.663176   
777.500000	3.629000   
778.000000	3.578975   
778.500000	3.526478   
779.000000	3.440751   
779.500000	3.387961   
780.000000	3.391231   
780.500000	3.337588   
781.000000	3.318560   
781.500000	3.323742   
782.000000	3.380831   
782.500000	3.438354   
783.000000	3.494064   
783.500000	3.566285   
784.000000	3.549044   
784.500000	3.492732   
785.000000	3.349983   
785.500000	3.220610   
786.000000	3.131293   
786.500000	3.095385   
787.000000	3.150361   
787.500000	3.208730   
788.000000	3.306304   
788.500000	3.347990   
789.000000	3.302411   
789.500000	3.220038   
790.000000	3.122842   
790.500000	3.024280   
791.000000	2.941246   
791.500000	2.925808   
792.000000	2.949014   
792.500000	2.940300   
793.000000	2.908051   
793.500000	2.864174   
794.000000	2.804530   
794.500000	2.732612   
795.000000	2.706508   
795.500000	2.715892   
796.000000	2.721975   
796.500000	2.718658   
797.000000	2.719215   
797.500000	2.696241   
798.000000	2.663185   
798.500000	2.632972   
799.000000	2.630237   
799.500000	2.630122   
800.000000	2.617890   
800.500000	2.637218   
801.000000	2.616083   
801.500000	2.577918   
802.000000	2.502662   
802.500000	2.467695   
803.000000	2.434217   
803.500000	2.393437   
804.000000	2.393758   
804.500000	2.388762   
805.000000	2.412953   
805.500000	2.379660   
806.000000	2.365994   
806.500000	2.370664   
807.000000	2.374948   
807.500000	2.368823   
808.000000	2.354265   
808.500000	2.323435   
809.000000	2.236174   
809.500000	2.119020   
810.000000	2.024263   
810.500000	2.004710   
811.000000	1.973564   
811.500000	1.993222   
812.000000	2.070833   
812.500000	2.103773   
813.000000	2.086287   
813.500000	2.045664   
814.000000	2.013515   
814.500000	1.910098   
815.000000	1.833751   
815.500000	1.834411   
816.000000	1.844634   
816.500000	1.891515   
817.000000	1.964686   
817.500000	2.080204   
818.000000	2.151159   
818.500000	2.217899   
819.000000	2.273105   
819.500000	2.282725   
820.000000	2.283391   
820.500000	2.315415   
821.000000	2.369133   
821.500000	2.399944   
822.000000	2.460966   
822.500000	2.515411   
823.000000	2.566675   
823.500000	2.622705   
824.000000	2.722510   
824.500000	2.838682   
825.000000	2.901087   
825.500000	2.933395   
826.000000	2.903116   
826.500000	2.835194   
827.000000	2.708745   
827.500000	2.601656   
828.000000	2.507961   
828.500000	2.380333   
829.000000	2.229825   
829.500000	2.033964   
830.000000	1.811447   
830.500000	1.607122   
831.000000	1.467224   
831.500000	1.394508   
832.000000	1.362205   
832.500000	1.365931   
833.000000	1.363706   
833.500000	1.320925   
834.000000	1.267044   
834.500000	1.213673   
835.000000	1.173725   
835.500000	1.147202   
836.000000	1.133539   
836.500000	1.139981   
837.000000	1.126857   
837.500000	1.118430   
838.000000	1.089931   
838.500000	1.082423   
839.000000	1.062066   
839.500000	1.020654   
840.000000	0.949725   
840.500000	0.898129   
841.000000	0.833163   
841.500000	0.757289   
842.000000	0.741330   
842.500000	0.750345   
843.000000	0.758588   
843.500000	0.735634   
844.000000	0.752640   
844.500000	0.766968   
845.000000	0.711359   
845.500000	0.657231   
846.000000	0.605348   
846.500000	0.547328   
847.000000	0.471868   
847.500000	0.421018   
848.000000	0.425317   
848.500000	0.399487   
849.000000	0.371584   
849.500000	0.365304   
850.000000	0.378448   
850.500000	0.414426   
851.000000	0.412953   
851.500000	0.446233   
852.000000	0.435706   
852.500000	0.403424   
853.000000	0.361905   
853.500000	0.321699   
854.000000	0.305591   
854.500000	0.264083   
855.000000	0.224562   
855.500000	0.154714   
856.000000	0.085536   
856.500000	0.046955   
857.000000	0.029218   
857.500000	0.041077   
858.000000	0.047599   
858.500000	0.049862   
859.000000	0.015534   
859.500000	-0.043962  
860.000000	-0.086656  
860.500000	-0.119094  
861.000000	-0.143985  
861.500000	-0.182656  
862.000000	-0.179467  
862.500000	-0.172823  
863.000000	-0.175343  
863.500000	-0.175860  
864.000000	-0.178745  
864.500000	-0.153037  
865.000000	-0.150165  
865.500000	-0.122795  
866.000000	-0.076059  
866.500000	-0.036419  
867.000000	0.002855   
867.500000	0.017688   
868.000000	0.042551   
868.500000	0.033764   
869.000000	-0.000445  
869.500000	-0.034987  
870.000000	-0.092591  
870.500000	-0.130107  
871.000000	-0.156072  
871.500000	-0.157215  
872.000000	-0.135155  
872.500000	-0.136786  
873.000000	-0.149771  
873.500000	-0.195150  
874.000000	-0.246638  
874.500000	-0.293241  
875.000000	-0.300749  
875.500000	-0.270196  
876.000000	-0.220794  
876.500000	-0.162046  
877.000000	-0.100708  
877.500000	-0.073962  
878.000000	-0.101001  
878.500000	-0.127302  
879.000000	-0.160831  
879.500000	-0.169717  
880.000000	-0.161385  
880.500000	-0.116842  
881.000000	-0.053085  
881.500000	-0.017259  
882.000000	0.012925   
882.500000	0.037732   
883.000000	0.029755   
883.500000	0.004864   
884.000000	-0.027794  
884.500000	-0.079922  
885.000000	-0.142243  
885.500000	-0.224220  
886.000000	-0.273150  
886.500000	-0.306200  
887.000000	-0.325098  
887.500000	-0.325296  
888.000000	-0.299532  
888.500000	-0.233838  
889.000000	-0.169428  
889.500000	-0.095701  
890.000000	-0.030768  
890.500000	0.007935   
891.000000	0.002359   
891.500000	-0.011899  
892.000000	-0.019094  
892.500000	-0.014263  
893.000000	-0.026512  
893.500000	-0.027875  
894.000000	-0.040779  
894.500000	-0.096456  
895.000000	-0.148300  
895.500000	-0.167782  
896.000000	-0.146645  
896.500000	-0.101150  

