PE FL                   SPECTRUM    ASCII       PEDS        1.60        
  -1
S00BA3~1.SP
24/04/11
16:38:58.00
24/04/11
16:38:58.00
Jan

896.500000
1









LS55
405.00
5.00
5.00
SCAN
1
20
100
100
0
400
0
1
0
1
5
ON
736 405 
1 0 0
#HDR
-1
-1
#GR
NM

0.00002384185791015625
0.0
450.000000
0.500000
894
8
333.385230
-0.193584
#DATA
450.000000	-0.172000  
450.500000	-0.083063  
451.000000	0.030012   
451.500000	0.145393   
452.000000	0.234144   
452.500000	0.253205   
453.000000	0.196814   
453.500000	0.088679   
454.000000	0.016619   
454.500000	0.025923   
455.000000	0.118098   
455.500000	0.221562   
456.000000	0.291476   
456.500000	0.314756   
457.000000	0.239393   
457.500000	0.117667   
458.000000	0.038053   
458.500000	-0.003961  
459.000000	-0.019899  
459.500000	-0.016723  
460.000000	0.021571   
460.500000	0.033554   
461.000000	0.030044   
461.500000	0.078077   
462.000000	0.134929   
462.500000	0.164115   
463.000000	0.128740   
463.500000	0.079534   
464.000000	0.001567   
464.500000	-0.095443  
465.000000	-0.126315  
465.500000	-0.073300  
466.000000	0.045256   
466.500000	0.184860   
467.000000	0.307510   
467.500000	0.359447   
468.000000	0.316903   
468.500000	0.220614   
469.000000	0.140578   
469.500000	0.096094   
470.000000	0.122035   
470.500000	0.168218   
471.000000	0.184018   
471.500000	0.176987   
472.000000	0.120782   
472.500000	0.051864   
473.000000	-0.015448  
473.500000	-0.024597  
474.000000	-0.035959  
474.500000	-0.070526  
475.000000	-0.074263  
475.500000	-0.113868  
476.000000	-0.167838  
476.500000	-0.178866  
477.000000	-0.099423  
477.500000	-0.017766  
478.000000	0.045126   
478.500000	0.140636   
479.000000	0.194617   
479.500000	0.144890   
480.000000	0.056816   
480.500000	-0.010185  
481.000000	-0.077348  
481.500000	-0.129536  
482.000000	-0.129384  
482.500000	-0.052094  
483.000000	0.054443   
483.500000	0.182751   
484.000000	0.288771   
484.500000	0.400348   
485.000000	0.457593   
485.500000	0.412354   
486.000000	0.321751   
486.500000	0.174324   
487.000000	0.063307   
487.500000	-0.009784  
488.000000	0.022434   
488.500000	0.117447   
489.000000	0.179597   
489.500000	0.227328   
490.000000	0.168320   
490.500000	0.055792   
491.000000	-0.056341  
491.500000	-0.115172  
492.000000	-0.103884  
492.500000	-0.090356  
493.000000	0.027578   
493.500000	0.113432   
494.000000	0.154641   
494.500000	0.202400   
495.000000	0.273775   
495.500000	0.369877   
496.000000	0.418111   
496.500000	0.510539   
497.000000	0.541005   
497.500000	0.487426   
498.000000	0.404495   
498.500000	0.322489   
499.000000	0.268354   
499.500000	0.242198   
500.000000	0.312734   
500.500000	0.416658   
501.000000	0.502046   
501.500000	0.580307   
502.000000	0.613287   
502.500000	0.622901   
503.000000	0.637285   
503.500000	0.669855   
504.000000	0.703126   
504.500000	0.723489   
505.000000	0.760025   
505.500000	0.781185   
506.000000	0.800840   
506.500000	0.829020   
507.000000	0.852473   
507.500000	0.878025   
508.000000	0.918632   
508.500000	0.962606   
509.000000	1.054914   
509.500000	1.195467   
510.000000	1.366122   
510.500000	1.539358   
511.000000	1.671217   
511.500000	1.781881   
512.000000	1.826584   
512.500000	1.854690   
513.000000	1.845187   
513.500000	1.867168   
514.000000	1.908174   
514.500000	1.964580   
515.000000	2.053504   
515.500000	2.153525   
516.000000	2.252500   
516.500000	2.277415   
517.000000	2.295426   
517.500000	2.307207   
518.000000	2.334083   
518.500000	2.368959   
519.000000	2.432333   
519.500000	2.526324   
520.000000	2.602116   
520.500000	2.647868   
521.000000	2.649356   
521.500000	2.640890   
522.000000	2.630345   
522.500000	2.632589   
523.000000	2.646417   
523.500000	2.701536   
524.000000	2.746244   
524.500000	2.829263   
525.000000	2.911701   
525.500000	3.033858   
526.000000	3.229059   
526.500000	3.470782   
527.000000	3.797185   
527.500000	4.119024   
528.000000	4.430552   
528.500000	4.648784   
529.000000	4.754658   
529.500000	4.788487   
530.000000	4.757018   
530.500000	4.769912   
531.000000	4.881319   
531.500000	5.079042   
532.000000	5.335313   
532.500000	5.615512   
533.000000	5.895742   
533.500000	6.118124   
534.000000	6.322502   
534.500000	6.597586   
535.000000	6.861135   
535.500000	7.054226   
536.000000	7.244853   
536.500000	7.496977   
537.000000	7.713602   
537.500000	7.916176   
538.000000	8.229864   
538.500000	8.632693   
539.000000	9.028243   
539.500000	9.400651   
540.000000	9.825896   
540.500000	10.238742  
541.000000	10.604337  
541.500000	10.921844  
542.000000	11.201786  
542.500000	11.348241  
543.000000	11.401072  
543.500000	11.398070  
544.000000	11.329612  
544.500000	11.266610  
545.000000	11.177968  
545.500000	11.128554  
546.000000	11.001571  
546.500000	10.968361  
547.000000	10.927669  
547.500000	10.839263  
548.000000	10.734638  
548.500000	10.541974  
549.000000	10.462951  
549.500000	10.225662  
550.000000	10.026037  
550.500000	9.873897   
551.000000	9.823191   
551.500000	9.833949   
552.000000	9.781771   
552.500000	9.871309   
553.000000	9.905029   
553.500000	9.938779   
554.000000	9.939085   
554.500000	10.036437  
555.000000	10.206398  
555.500000	10.327788  
556.000000	10.469628  
556.500000	10.615423  
557.000000	10.718215  
557.500000	10.841278  
558.000000	11.057278  
558.500000	11.411009  
559.000000	11.843122  
559.500000	12.268922  
560.000000	12.662094  
560.500000	12.940061  
561.000000	13.184502  
561.500000	13.456591  
562.000000	13.802831  
562.500000	14.262827  
563.000000	14.709042  
563.500000	15.151070  
564.000000	15.497530  
564.500000	15.809873  
565.000000	16.154346  
565.500000	16.636562  
566.000000	17.314525  
566.500000	18.081523  
567.000000	18.867035  
567.500000	19.648862  
568.000000	20.368183  
568.500000	21.085105  
569.000000	21.801640  
569.500000	22.610996  
570.000000	23.379146  
570.500000	24.061105  
571.000000	24.716660  
571.500000	25.305562  
572.000000	25.825400  
572.500000	26.358098  
573.000000	26.982246  
573.500000	27.590925  
574.000000	28.167604  
574.500000	28.774595  
575.000000	29.482135  
575.500000	30.233686  
576.000000	30.990280  
576.500000	31.797595  
577.000000	32.621502  
577.500000	33.311944  
578.000000	33.980027  
578.500000	34.762467  
579.000000	35.642452  
579.500000	36.673755  
580.000000	37.782923  
580.500000	38.960252  
581.000000	39.953912  
581.500000	40.722994  
582.000000	41.286554  
582.500000	41.683647  
583.000000	42.147282  
583.500000	42.829918  
584.000000	43.744269  
584.500000	44.814417  
585.000000	46.000536  
585.500000	47.316630  
586.000000	48.507371  
586.500000	49.504623  
587.000000	50.642057  
587.500000	51.912478  
588.000000	53.310417  
588.500000	54.772972  
589.000000	56.443695  
589.500000	58.167365  
590.000000	59.599491  
590.500000	61.057224  
591.000000	62.327367  
591.500000	63.515296  
592.000000	64.692187  
592.500000	65.918762  
593.000000	67.399747  
593.500000	68.844270  
594.000000	70.508285  
594.500000	72.097090  
595.000000	73.611397  
595.500000	75.152632  
596.000000	76.579630  
596.500000	77.951506  
597.000000	79.311641  
597.500000	80.997573  
598.000000	82.733009  
598.500000	84.446159  
599.000000	86.388564  
599.500000	88.318998  
600.000000	90.145465  
600.500000	91.879964  
601.000000	93.828324  
601.500000	96.006630  
602.000000	98.301601  
602.500000	101.023007 
603.000000	103.833495 
603.500000	106.482265 
604.000000	108.513879 
604.500000	110.252107 
605.000000	111.980975 
605.500000	113.591482 
606.000000	115.681853 
606.500000	118.235228 
607.000000	121.318888 
607.500000	124.416382 
608.000000	127.585897 
608.500000	131.027235 
609.000000	134.261519 
609.500000	137.278567 
610.000000	140.249367 
610.500000	143.019398 
611.000000	145.360491 
611.500000	147.718747 
612.000000	150.457723 
612.500000	153.405269 
613.000000	156.551602 
613.500000	160.012333 
614.000000	163.443085 
614.500000	166.586400 
615.000000	169.967311 
615.500000	173.519779 
616.000000	177.004751 
616.500000	180.599951 
617.000000	184.212760 
617.500000	187.633454 
618.000000	190.729102 
618.500000	194.262846 
619.000000	198.153146 
619.500000	201.790256 
620.000000	205.697128 
620.500000	209.729862 
621.000000	213.903862 
621.500000	217.635400 
622.000000	221.338103 
622.500000	225.471443 
623.000000	229.014935 
623.500000	232.451758 
624.000000	236.013202 
624.500000	240.022081 
625.000000	244.028224 
625.500000	247.655057 
626.000000	251.778831 
626.500000	255.146662 
627.000000	258.087126 
627.500000	261.149870 
628.000000	264.483358 
628.500000	268.163174 
629.000000	271.641016 
629.500000	275.625131 
630.000000	279.011072 
630.500000	281.903586 
631.000000	284.849827 
631.500000	287.382068 
632.000000	289.920857 
632.500000	292.721675 
633.000000	295.961367 
633.500000	299.592111 
634.000000	303.415881 
634.500000	307.294471 
635.000000	310.658996 
635.500000	313.258547 
636.000000	315.401751 
636.500000	316.980829 
637.000000	318.494914 
637.500000	320.448178 
638.000000	322.290599 
638.500000	323.905569 
639.000000	325.201588 
639.500000	326.258220 
640.000000	327.094604 
640.500000	327.569560 
641.000000	328.630179 
641.500000	329.674374 
642.000000	330.716925 
642.500000	331.855144 
643.000000	332.493371 
643.500000	333.275435 
644.000000	333.385230 
644.500000	333.382027 
645.000000	333.269465 
645.500000	332.929476 
646.000000	332.768996 
646.500000	331.959525 
647.000000	331.458170 
647.500000	330.710812 
648.000000	329.729437 
648.500000	328.627426 
649.000000	327.583089 
649.500000	326.801170 
650.000000	325.665259 
650.500000	324.613276 
651.000000	323.236539 
651.500000	321.279998 
652.000000	318.944938 
652.500000	316.511181 
653.000000	313.666697 
653.500000	310.448319 
654.000000	307.648051 
654.500000	304.941313 
655.000000	302.267337 
655.500000	299.981319 
656.000000	297.879248 
656.500000	295.310829 
657.000000	292.172894 
657.500000	288.939790 
658.000000	285.322064 
658.500000	281.500857 
659.000000	278.156547 
659.500000	275.105875 
660.000000	272.328792 
660.500000	269.344543 
661.000000	266.216922 
661.500000	262.351656 
662.000000	258.203324 
662.500000	254.009604 
663.000000	249.566022 
663.500000	245.158165 
664.000000	240.711940 
664.500000	236.392363 
665.000000	231.729463 
665.500000	227.279376 
666.000000	223.029378 
666.500000	218.678083 
667.000000	214.499077 
667.500000	210.472497 
668.000000	206.654287 
668.500000	202.614948 
669.000000	198.187267 
669.500000	193.924959 
670.000000	189.295126 
670.500000	184.598447 
671.000000	179.886129 
671.500000	175.440489 
672.000000	171.132285 
672.500000	166.487174 
673.000000	162.356812 
673.500000	158.171502 
674.000000	154.099814 
674.500000	150.210486 
675.000000	146.482612 
675.500000	142.943166 
676.000000	139.016886 
676.500000	135.363426 
677.000000	131.747406 
677.500000	128.252461 
678.000000	125.062554 
678.500000	121.763526 
679.000000	118.485593 
679.500000	114.872168 
680.000000	111.134092 
680.500000	107.478207 
681.000000	104.002115 
681.500000	101.061250 
682.000000	98.180660  
682.500000	95.529487  
683.000000	93.181215  
683.500000	90.652935  
684.000000	88.079875  
684.500000	85.587419  
685.000000	83.232014  
685.500000	80.876846  
686.000000	78.530545  
686.500000	76.584851  
687.000000	74.520695  
687.500000	72.291029  
688.000000	70.094738  
688.500000	67.661406  
689.000000	65.364786  
689.500000	63.221946  
690.000000	61.519226  
690.500000	60.155118  
691.000000	58.766981  
691.500000	57.448875  
692.000000	55.807875  
692.500000	54.013636  
693.000000	52.125821  
693.500000	50.376380  
694.000000	48.939910  
694.500000	47.464664  
695.000000	46.127576  
695.500000	44.775554  
696.000000	43.440818  
696.500000	42.072643  
697.000000	40.802163  
697.500000	39.728983  
698.000000	38.640983  
698.500000	37.537330  
699.000000	36.441643  
699.500000	35.378469  
700.000000	34.301033  
700.500000	33.425716  
701.000000	32.694269  
701.500000	32.089153  
702.000000	31.608847  
702.500000	31.099858  
703.000000	30.518834  
703.500000	29.900589  
704.000000	29.267076  
704.500000	28.543636  
705.000000	27.719178  
705.500000	26.836775  
706.000000	25.945025  
706.500000	24.956417  
707.000000	24.125523  
707.500000	23.394018  
708.000000	22.876677  
708.500000	22.512068  
709.000000	22.305389  
709.500000	22.252795  
710.000000	22.009285  
710.500000	21.848495  
711.000000	21.414202  
711.500000	20.896089  
712.000000	20.250159  
712.500000	19.498411  
713.000000	18.848697  
713.500000	18.162512  
714.000000	17.708111  
714.500000	17.219103  
715.000000	16.870230  
715.500000	16.583439  
716.000000	16.373627  
716.500000	16.206497  
717.000000	16.049384  
717.500000	15.955743  
718.000000	15.700200  
718.500000	15.363641  
719.000000	14.914263  
719.500000	14.481280  
720.000000	14.039359  
720.500000	13.693191  
721.000000	13.543564  
721.500000	13.523730  
722.000000	13.539842  
722.500000	13.430074  
723.000000	13.191174  
723.500000	12.788873  
724.000000	12.260743  
724.500000	11.761873  
725.000000	11.398890  
725.500000	11.242621  
726.000000	11.223795  
726.500000	11.323102  
727.000000	11.360111  
727.500000	11.280881  
728.000000	11.170955  
728.500000	10.860458  
729.000000	10.454410  
729.500000	10.075573  
730.000000	9.810975   
730.500000	9.618855   
731.000000	9.472630   
731.500000	9.531846   
732.000000	9.532107   
732.500000	9.354337   
733.000000	9.100499   
733.500000	8.809666   
734.000000	8.543506   
734.500000	8.227445   
735.000000	8.088159   
735.500000	8.003836   
736.000000	7.833517   
736.500000	7.744515   
737.000000	7.678372   
737.500000	7.711823   
738.000000	7.725679   
738.500000	7.816654   
739.000000	7.880215   
739.500000	7.786673   
740.000000	7.659797   
740.500000	7.532118   
741.000000	7.363897   
741.500000	7.146638   
742.000000	7.028846   
742.500000	6.958061   
743.000000	6.851051   
743.500000	6.777421   
744.000000	6.789929   
744.500000	6.769840   
745.000000	6.708864   
745.500000	6.695066   
746.000000	6.719788   
746.500000	6.628198   
747.000000	6.508064   
747.500000	6.431011   
748.000000	6.305569   
748.500000	6.104968   
749.000000	5.912324   
749.500000	5.783293   
750.000000	5.575781   
750.500000	5.427304   
751.000000	5.331604   
751.500000	5.299801   
752.000000	5.277432   
752.500000	5.323005   
753.000000	5.467280   
753.500000	5.511304   
754.000000	5.488000   
754.500000	5.388224   
755.000000	5.244922   
755.500000	5.067478   
756.000000	4.904853   
756.500000	4.845821   
757.000000	4.812183   
757.500000	4.775426   
758.000000	4.699940   
758.500000	4.600812   
759.000000	4.503519   
759.500000	4.418094   
760.000000	4.448970   
760.500000	4.553328   
761.000000	4.684109   
761.500000	4.768369   
762.000000	4.773717   
762.500000	4.710580   
763.000000	4.529619   
763.500000	4.340686   
764.000000	4.176638   
764.500000	4.070901   
765.000000	4.036187   
765.500000	4.071100   
766.000000	4.202838   
766.500000	4.294166   
767.000000	4.350788   
767.500000	4.359641   
768.000000	4.288300   
768.500000	4.148250   
769.000000	4.031447   
769.500000	4.065912   
770.000000	4.154667   
770.500000	4.220756   
771.000000	4.320135   
771.500000	4.365345   
772.000000	4.276910   
772.500000	4.134055   
773.000000	4.016378   
773.500000	3.898035   
774.000000	3.772384   
774.500000	3.712172   
775.000000	3.655551   
775.500000	3.571237   
776.000000	3.521883   
776.500000	3.514261   
777.000000	3.501820   
777.500000	3.476222   
778.000000	3.477187   
778.500000	3.398447   
779.000000	3.302116   
779.500000	3.263107   
780.000000	3.269899   
780.500000	3.267552   
781.000000	3.288155   
781.500000	3.330161   
782.000000	3.302740   
782.500000	3.253157   
783.000000	3.199688   
783.500000	3.149762   
784.000000	3.092059   
784.500000	3.082768   
785.000000	3.093319   
785.500000	3.110415   
786.000000	3.147931   
786.500000	3.162994   
787.000000	3.126150   
787.500000	3.057131   
788.000000	2.960419   
788.500000	2.844035   
789.000000	2.760243   
789.500000	2.758975   
790.000000	2.805667   
790.500000	2.859549   
791.000000	2.933877   
791.500000	2.963016   
792.000000	2.936601   
792.500000	2.867228   
793.000000	2.834810   
793.500000	2.810658   
794.000000	2.795018   
794.500000	2.835000   
795.000000	2.853087   
795.500000	2.878500   
796.000000	2.859341   
796.500000	2.833189   
797.000000	2.766853   
797.500000	2.689762   
798.000000	2.643404   
798.500000	2.554337   
799.000000	2.493280   
799.500000	2.442935   
800.000000	2.435499   
800.500000	2.421146   
801.000000	2.386532   
801.500000	2.385517   
802.000000	2.341751   
802.500000	2.310688   
803.000000	2.275406   
803.500000	2.267701   
804.000000	2.280302   
804.500000	2.274235   
805.000000	2.292827   
805.500000	2.294333   
806.000000	2.302753   
806.500000	2.279870   
807.000000	2.225896   
807.500000	2.200552   
808.000000	2.203126   
808.500000	2.166539   
809.000000	2.133272   
809.500000	2.128805   
810.000000	2.125782   
810.500000	2.068556   
811.000000	2.031111   
811.500000	2.051712   
812.000000	2.023228   
812.500000	1.991671   
813.000000	1.971532   
813.500000	1.988293   
814.000000	1.934285   
814.500000	1.877009   
815.000000	1.873782   
815.500000	1.839838   
816.000000	1.801228   
816.500000	1.747497   
817.000000	1.751899   
817.500000	1.750040   
818.000000	1.787610   
818.500000	1.869068   
819.000000	1.974012   
819.500000	2.098014   
820.000000	2.166345   
820.500000	2.239209   
821.000000	2.308489   
821.500000	2.359196   
822.000000	2.423285   
822.500000	2.498706   
823.000000	2.571929   
823.500000	2.581202   
824.000000	2.491315   
824.500000	2.402053   
825.000000	2.251608   
825.500000	2.099096   
826.000000	2.012736   
826.500000	1.995649   
827.000000	2.045877   
827.500000	2.057276   
828.000000	2.109756   
828.500000	2.096675   
829.000000	1.998846   
829.500000	1.864376   
830.000000	1.731790   
830.500000	1.629827   
831.000000	1.492799   
831.500000	1.403549   
832.000000	1.325263   
832.500000	1.241391   
833.000000	1.177951   
833.500000	1.168330   
834.000000	1.194504   
834.500000	1.218578   
835.000000	1.251593   
835.500000	1.270745   
836.000000	1.236942   
836.500000	1.151354   
837.000000	1.089270   
837.500000	1.036677   
838.000000	0.967530   
838.500000	0.926063   
839.000000	0.928048   
839.500000	0.946256   
840.000000	0.935198   
840.500000	0.929858   
841.000000	0.907677   
841.500000	0.833523   
842.000000	0.757089   
842.500000	0.700389   
843.000000	0.688213   
843.500000	0.683037   
844.000000	0.695695   
844.500000	0.714922   
845.000000	0.663205   
845.500000	0.573126   
846.000000	0.458198   
846.500000	0.345816   
847.000000	0.255595   
847.500000	0.203842   
848.000000	0.221181   
848.500000	0.272233   
849.000000	0.342614   
849.500000	0.375319   
850.000000	0.357983   
850.500000	0.279141   
851.000000	0.189269   
851.500000	0.140473   
852.000000	0.150532   
852.500000	0.216382   
853.000000	0.278788   
853.500000	0.326450   
854.000000	0.322445   
854.500000	0.285395   
855.000000	0.238769   
855.500000	0.206801   
856.000000	0.199131   
856.500000	0.188426   
857.000000	0.178604   
857.500000	0.147129   
858.000000	0.098888   
858.500000	0.081465   
859.000000	0.105274   
859.500000	0.152239   
860.000000	0.177899   
860.500000	0.166155   
861.000000	0.113515   
861.500000	0.003781   
862.000000	-0.079660  
862.500000	-0.104311  
863.000000	-0.082324  
863.500000	-0.039742  
864.000000	0.027254   
864.500000	0.076775   
865.000000	0.066580   
865.500000	0.033922   
866.000000	0.006851   
866.500000	-0.009272  
867.000000	-0.021269  
867.500000	-0.007499  
868.000000	0.017760   
868.500000	0.025102   
869.000000	0.033920   
869.500000	0.059278   
870.000000	0.078927   
870.500000	0.061391   
871.000000	0.046215   
871.500000	0.012328   
872.000000	-0.041571  
872.500000	-0.071153  
873.000000	-0.039146  
873.500000	0.012903   
874.000000	0.034584   
874.500000	0.078909   
875.000000	0.102142   
875.500000	0.084064   
876.000000	0.054833   
876.500000	0.037424   
877.000000	0.029365   
877.500000	-0.022142  
878.000000	-0.076231  
878.500000	-0.131081  
879.000000	-0.180200  
879.500000	-0.193584  
880.000000	-0.155322  
880.500000	-0.090977  
881.000000	-0.027128  
881.500000	0.012356   
882.000000	0.015536   
882.500000	-0.015901  
883.000000	-0.063730  
883.500000	-0.078476  
884.000000	-0.068669  
884.500000	-0.034983  
885.000000	0.000463   
885.500000	0.037708   
886.000000	0.075402   
886.500000	0.059781   
887.000000	0.067183   
887.500000	0.085745   
888.000000	0.111113   
888.500000	0.135003   
889.000000	0.148367   
889.500000	0.147890   
890.000000	0.090087   
890.500000	0.021721   
891.000000	-0.049313  
891.500000	-0.082862  
892.000000	-0.087675  
892.500000	-0.066732  
893.000000	-0.029552  
893.500000	-0.005027  
894.000000	0.005606   
894.500000	-0.007897  
895.000000	-0.026671  
895.500000	-0.063183  
896.000000	-0.101261  
896.500000	-0.123220  

