PE FL                   SPECTRUM    ASCII       PEDS        1.60        
  -1
S01B9B~1.SP
24/04/11
17:04:39.00
24/04/11
17:04:39.00
Jan

896.500000
1









LS55
405.00
5.00
5.00
SCAN
1
20
100
100
0
400
0
1
0
1
5
ON
736 405 
1 0 0
#HDR
-1
-1
#GR
NM

0.00002384185791015625
0.0
450.000000
0.500000
894
8
324.815428
-0.267779
#DATA
450.000000	-0.032000  
450.500000	-0.037526  
451.000000	-0.069504  
451.500000	-0.085964  
452.000000	-0.159395  
452.500000	-0.129410  
453.000000	-0.078196  
453.500000	0.016736   
454.000000	0.135103   
454.500000	0.211671   
455.000000	0.233152   
455.500000	0.180166   
456.000000	0.136111   
456.500000	0.118471   
457.000000	0.103187   
457.500000	0.131532   
458.000000	0.184881   
458.500000	0.216150   
459.000000	0.195289   
459.500000	0.134294   
460.000000	0.096955   
460.500000	0.021573   
461.000000	-0.054469  
461.500000	-0.114473  
462.000000	-0.155102  
462.500000	-0.163747  
463.000000	-0.186823  
463.500000	-0.144489  
464.000000	-0.078692  
464.500000	-0.010000  
465.000000	0.040406   
465.500000	0.068643   
466.000000	0.099795   
466.500000	0.086536   
467.000000	0.052005   
467.500000	0.009044   
468.000000	-0.039942  
468.500000	-0.071246  
469.000000	-0.128981  
469.500000	-0.144376  
470.000000	-0.116740  
470.500000	-0.054834  
471.000000	0.018810   
471.500000	0.065602   
472.000000	0.112257   
472.500000	0.116224   
473.000000	0.084118   
473.500000	0.045940   
474.000000	0.026434   
474.500000	0.042400   
475.000000	0.092304   
475.500000	0.162107   
476.000000	0.236823   
476.500000	0.253597   
477.000000	0.271580   
477.500000	0.268786   
478.000000	0.220220   
478.500000	0.204743   
479.000000	0.169998   
479.500000	0.134139   
480.000000	0.075875   
480.500000	0.044057   
481.000000	0.055975   
481.500000	0.038916   
482.000000	0.083213   
482.500000	0.125554   
483.000000	0.164105   
483.500000	0.204120   
484.000000	0.231805   
484.500000	0.262217   
485.000000	0.242847   
485.500000	0.256022   
486.000000	0.261858   
486.500000	0.256474   
487.000000	0.280910   
487.500000	0.307192   
488.000000	0.312246   
488.500000	0.262571   
489.000000	0.210920   
489.500000	0.142432   
490.000000	0.105628   
490.500000	0.125434   
491.000000	0.162901   
491.500000	0.217324   
492.000000	0.247985   
492.500000	0.222938   
493.000000	0.174888   
493.500000	0.141662   
494.000000	0.145914   
494.500000	0.160710   
495.000000	0.213365   
495.500000	0.298740   
496.000000	0.349159   
496.500000	0.422417   
497.000000	0.501482   
497.500000	0.571333   
498.000000	0.594638   
498.500000	0.591278   
499.000000	0.581172   
499.500000	0.541844   
500.000000	0.519389   
500.500000	0.533282   
501.000000	0.536014   
501.500000	0.531638   
502.000000	0.518706   
502.500000	0.495894   
503.000000	0.483988   
503.500000	0.498896   
504.000000	0.556144   
504.500000	0.627758   
505.000000	0.701541   
505.500000	0.753337   
506.000000	0.814435   
506.500000	0.865647   
507.000000	0.935643   
507.500000	1.003209   
508.000000	1.070309   
508.500000	1.138669   
509.000000	1.159723   
509.500000	1.191612   
510.000000	1.183647   
510.500000	1.178337   
511.000000	1.150181   
511.500000	1.160417   
512.000000	1.256402   
512.500000	1.359925   
513.000000	1.526510   
513.500000	1.703452   
514.000000	1.887191   
514.500000	2.025178   
515.000000	2.105645   
515.500000	2.220070   
516.000000	2.285233   
516.500000	2.310046   
517.000000	2.331402   
517.500000	2.340072   
518.000000	2.331005   
518.500000	2.301903   
519.000000	2.345979   
519.500000	2.434276   
520.000000	2.501630   
520.500000	2.557860   
521.000000	2.598430   
521.500000	2.636139   
522.000000	2.634864   
522.500000	2.652910   
523.000000	2.700955   
523.500000	2.761586   
524.000000	2.842348   
524.500000	2.945875   
525.000000	3.139076   
525.500000	3.360256   
526.000000	3.603949   
526.500000	3.814382   
527.000000	4.009814   
527.500000	4.142131   
528.000000	4.209215   
528.500000	4.361894   
529.000000	4.598768   
529.500000	4.897896   
530.000000	5.171758   
530.500000	5.442113   
531.000000	5.651226   
531.500000	5.776784   
532.000000	5.896569   
532.500000	6.059491   
533.000000	6.226437   
533.500000	6.397743   
534.000000	6.644602   
534.500000	6.923923   
535.000000	7.211838   
535.500000	7.532126   
536.000000	7.879582   
536.500000	8.175328   
537.000000	8.422573   
537.500000	8.701244   
538.000000	9.034027   
538.500000	9.389864   
539.000000	9.862790   
539.500000	10.389113  
540.000000	10.914591  
540.500000	11.342554  
541.000000	11.667189  
541.500000	11.953695  
542.000000	12.078847  
542.500000	12.107610  
543.000000	11.991638  
543.500000	11.870000  
544.000000	11.698235  
544.500000	11.496680  
545.000000	11.390209  
545.500000	11.342434  
546.000000	11.358601  
546.500000	11.391627  
547.000000	11.433790  
547.500000	11.439697  
548.000000	11.353346  
548.500000	11.134276  
549.000000	10.851484  
549.500000	10.485870  
550.000000	10.194200  
550.500000	9.959124   
551.000000	9.828233   
551.500000	9.805163   
552.000000	9.852233   
552.500000	10.000818  
553.000000	10.045033  
553.500000	10.109682  
554.000000	10.172378  
554.500000	10.297400  
555.000000	10.412278  
555.500000	10.491855  
556.000000	10.685840  
556.500000	10.894918  
557.000000	11.073549  
557.500000	11.258246  
558.000000	11.547539  
558.500000	11.834226  
559.000000	12.080623  
559.500000	12.380684  
560.000000	12.805129  
560.500000	13.280369  
561.000000	13.790090  
561.500000	14.352441  
562.000000	14.941974  
562.500000	15.495480  
563.000000	15.888437  
563.500000	16.283406  
564.000000	16.674161  
564.500000	17.119777  
565.000000	17.661764  
565.500000	18.249929  
566.000000	18.903048  
566.500000	19.456424  
567.000000	20.052298  
567.500000	20.608873  
568.000000	21.098922  
568.500000	21.771907  
569.000000	22.439656  
569.500000	23.158834  
570.000000	23.761803  
570.500000	24.320628  
571.000000	24.825115  
571.500000	25.150664  
572.000000	25.728955  
572.500000	26.429352  
573.000000	27.321122  
573.500000	28.245673  
574.000000	29.111027  
574.500000	30.043918  
575.000000	30.670126  
575.500000	31.185244  
576.000000	31.517452  
576.500000	31.919821  
577.000000	32.286246  
577.500000	32.626671  
578.000000	33.237831  
578.500000	34.089170  
579.000000	35.110274  
579.500000	36.140196  
580.000000	37.264476  
580.500000	38.197211  
581.000000	38.834961  
581.500000	39.367109  
582.000000	39.975278  
582.500000	40.669209  
583.000000	41.581139  
583.500000	42.805666  
584.000000	44.188545  
584.500000	45.656248  
585.000000	46.949979  
585.500000	48.230428  
586.000000	49.261122  
586.500000	50.274361  
587.000000	51.500398  
587.500000	52.887810  
588.000000	54.353779  
588.500000	55.688782  
589.000000	57.187896  
589.500000	58.391098  
590.000000	59.408545  
590.500000	60.496053  
591.000000	61.733181  
591.500000	63.106244  
592.000000	64.488276  
592.500000	66.193233  
593.000000	67.862545  
593.500000	69.457202  
594.000000	71.216938  
594.500000	73.148771  
595.000000	75.153395  
595.500000	77.077215  
596.000000	79.266165  
596.500000	81.403643  
597.000000	83.478042  
597.500000	85.436801  
598.000000	87.300576  
598.500000	89.180957  
599.000000	91.032152  
599.500000	92.941437  
600.000000	94.813525  
600.500000	96.788319  
601.000000	98.958614  
601.500000	101.178701 
602.000000	103.717647 
602.500000	106.573671 
603.000000	109.314128 
603.500000	111.754356 
604.000000	113.899634 
604.500000	115.965526 
605.000000	117.742949 
605.500000	119.547163 
606.000000	121.876539 
606.500000	124.554500 
607.000000	127.722484 
607.500000	130.876881 
608.000000	134.198675 
608.500000	137.359096 
609.000000	140.278172 
609.500000	143.159571 
610.000000	145.759614 
610.500000	148.455755 
611.000000	151.234612 
611.500000	154.340000 
612.000000	157.548283 
612.500000	160.657244 
613.000000	163.894975 
613.500000	167.146053 
614.000000	170.466083 
614.500000	173.816769 
615.000000	177.628807 
615.500000	181.410756 
616.000000	184.821846 
616.500000	188.198879 
617.000000	191.443506 
617.500000	194.352714 
618.000000	197.067048 
618.500000	200.179463 
619.000000	203.567929 
619.500000	207.111677 
620.000000	211.070452 
620.500000	214.925172 
621.000000	218.646037 
621.500000	222.278604 
622.000000	225.990287 
622.500000	229.686037 
623.000000	233.384769 
623.500000	237.327764 
624.000000	241.389647 
624.500000	245.268717 
625.000000	248.982417 
625.500000	252.530157 
626.000000	255.603499 
626.500000	258.725397 
627.000000	261.740645 
627.500000	265.073693 
628.000000	268.643441 
628.500000	272.422927 
629.000000	276.490291 
629.500000	280.349725 
630.000000	284.282400 
630.500000	287.548050 
631.000000	290.580929 
631.500000	293.047827 
632.000000	295.369343 
632.500000	297.604467 
633.000000	299.743222 
633.500000	301.978968 
634.000000	304.038278 
634.500000	306.022341 
635.000000	307.641265 
635.500000	309.126721 
636.000000	310.183985 
636.500000	311.383569 
637.000000	313.199261 
637.500000	314.893651 
638.000000	316.587630 
638.500000	318.289241 
639.000000	319.527873 
639.500000	320.186649 
640.000000	320.563580 
640.500000	321.566087 
641.000000	322.604862 
641.500000	323.397838 
642.000000	324.331630 
642.500000	324.815428 
643.000000	324.332526 
643.500000	322.990319 
644.000000	322.023131 
644.500000	321.062567 
645.000000	320.177586 
645.500000	319.888623 
646.000000	319.879897 
646.500000	319.636309 
647.000000	318.900840 
647.500000	317.893903 
648.000000	316.788712 
648.500000	314.927141 
649.000000	312.738738 
649.500000	310.612187 
650.000000	308.428782 
650.500000	306.290729 
651.000000	304.410469 
651.500000	303.186532 
652.000000	301.679740 
652.500000	299.992981 
653.000000	297.552821 
653.500000	294.511641 
654.000000	291.314602 
654.500000	287.649159 
655.000000	284.628152 
655.500000	281.741938 
656.000000	279.130641 
656.500000	276.111686 
657.000000	272.939890 
657.500000	269.730627 
658.000000	265.994153 
658.500000	262.558044 
659.000000	258.864679 
659.500000	255.347307 
660.000000	251.419068 
660.500000	247.406985 
661.000000	243.422512 
661.500000	239.032250 
662.000000	234.656480 
662.500000	229.885046 
663.000000	224.958981 
663.500000	219.948545 
664.000000	215.229884 
664.500000	210.940998 
665.000000	207.106118 
665.500000	203.396152 
666.000000	199.375376 
666.500000	194.981285 
667.000000	190.345521 
667.500000	185.433304 
668.000000	180.512664 
668.500000	175.970408 
669.000000	171.527137 
669.500000	167.225749 
670.000000	163.144033 
670.500000	159.364612 
671.000000	155.462467 
671.500000	151.470025 
672.000000	147.250267 
672.500000	142.904098 
673.000000	138.563604 
673.500000	134.383643 
674.000000	130.511315 
674.500000	126.965435 
675.000000	124.000189 
675.500000	121.024467 
676.000000	118.150923 
676.500000	115.478391 
677.000000	112.945595 
677.500000	110.253218 
678.000000	107.258608 
678.500000	104.273745 
679.000000	101.089760 
679.500000	97.730719  
680.000000	94.407402  
680.500000	91.503133  
681.000000	88.772599  
681.500000	86.001510  
682.000000	83.340007  
682.500000	81.075951  
683.000000	78.885209  
683.500000	76.683226  
684.000000	74.551361  
684.500000	72.595946  
685.000000	70.566144  
685.500000	68.389636  
686.000000	66.424666  
686.500000	64.515298  
687.000000	62.652897  
687.500000	61.003014  
688.000000	59.626601  
688.500000	58.169354  
689.000000	56.558873  
689.500000	54.871870  
690.000000	53.120515  
690.500000	51.199586  
691.000000	49.494710  
691.500000	48.096654  
692.000000	46.874198  
692.500000	45.754328  
693.000000	44.595771  
693.500000	43.451779  
694.000000	42.116241  
694.500000	40.866244  
695.000000	39.666092  
695.500000	38.597525  
696.000000	37.583567  
696.500000	36.582218  
697.000000	35.556233  
697.500000	34.465473  
698.000000	33.406096  
698.500000	32.379016  
699.000000	31.384935  
699.500000	30.495020  
700.000000	29.760066  
700.500000	28.954439  
701.000000	28.245178  
701.500000	27.541944  
702.000000	26.810181  
702.500000	26.045432  
703.000000	25.435775  
703.500000	25.039617  
704.000000	24.613181  
704.500000	24.263307  
705.000000	23.968575  
705.500000	23.561343  
706.000000	22.961573  
706.500000	22.406653  
707.000000	21.854777  
707.500000	21.168870  
708.000000	20.505916  
708.500000	20.075237  
709.000000	19.668007  
709.500000	19.182460  
710.000000	18.858610  
710.500000	18.493636  
711.000000	18.079922  
711.500000	17.554595  
712.000000	17.092604  
712.500000	16.617560  
713.000000	16.146918  
713.500000	15.849730  
714.000000	15.552766  
714.500000	15.331037  
715.000000	15.132964  
715.500000	14.999090  
716.000000	14.823300  
716.500000	14.641385  
717.000000	14.478102  
717.500000	14.227918  
718.000000	13.915933  
718.500000	13.653204  
719.000000	13.351389  
719.500000	13.041517  
720.000000	12.734389  
720.500000	12.468183  
721.000000	12.242536  
721.500000	11.944122  
722.000000	11.692166  
722.500000	11.519953  
723.000000	11.381393  
723.500000	11.173181  
724.000000	10.963116  
724.500000	10.834250  
725.000000	10.659966  
725.500000	10.487168  
726.000000	10.486717  
726.500000	10.522584  
727.000000	10.485688  
727.500000	10.324615  
728.000000	10.104684  
728.500000	9.789048   
729.000000	9.328499   
729.500000	8.995912   
730.000000	8.774627   
730.500000	8.616948   
731.000000	8.537719   
731.500000	8.520912   
732.000000	8.500215   
732.500000	8.387081   
733.000000	8.182573   
733.500000	7.897554   
734.000000	7.610936   
734.500000	7.453038   
735.000000	7.371957   
735.500000	7.358643   
736.000000	7.418972   
736.500000	7.440853   
737.000000	7.431881   
737.500000	7.336063   
738.000000	7.314150   
738.500000	7.258265   
739.000000	7.171306   
739.500000	7.111884   
740.000000	7.050153   
740.500000	6.997128   
741.000000	6.921812   
741.500000	6.889784   
742.000000	6.778697   
742.500000	6.616523   
743.000000	6.519294   
743.500000	6.417853   
744.000000	6.396090   
744.500000	6.433294   
745.000000	6.435294   
745.500000	6.321020   
746.000000	6.086237   
746.500000	5.821367   
747.000000	5.559541   
747.500000	5.393721   
748.000000	5.380042   
748.500000	5.420766   
749.000000	5.478903   
749.500000	5.513024   
750.000000	5.523716   
750.500000	5.471758   
751.000000	5.446050   
751.500000	5.436241   
752.000000	5.349350   
752.500000	5.263085   
753.000000	5.191059   
753.500000	5.113423   
754.000000	5.065645   
754.500000	5.074922   
755.000000	5.086526   
755.500000	4.989348   
756.000000	4.855426   
756.500000	4.692988   
757.000000	4.513948   
757.500000	4.355855   
758.000000	4.306823   
758.500000	4.381174   
759.000000	4.388929   
759.500000	4.420417   
760.000000	4.482339   
760.500000	4.473038   
761.000000	4.391860   
761.500000	4.338790   
762.000000	4.334391   
762.500000	4.272632   
763.000000	4.205027   
763.500000	4.179372   
764.000000	4.161267   
764.500000	4.095122   
765.000000	4.061736   
765.500000	4.052183   
766.000000	4.004270   
766.500000	3.966853   
767.000000	3.909768   
767.500000	3.782313   
768.000000	3.619584   
768.500000	3.543192   
769.000000	3.499404   
769.500000	3.508467   
770.000000	3.594829   
770.500000	3.698025   
771.000000	3.728274   
771.500000	3.694129   
772.000000	3.648599   
772.500000	3.593619   
773.000000	3.548319   
773.500000	3.501404   
774.000000	3.457241   
774.500000	3.377265   
775.000000	3.249589   
775.500000	3.106430   
776.000000	3.012653   
776.500000	3.067526   
777.000000	3.163781   
777.500000	3.298909   
778.000000	3.418476   
778.500000	3.478128   
779.000000	3.439218   
779.500000	3.295606   
780.000000	3.191009   
780.500000	3.082844   
781.000000	3.025573   
781.500000	3.021482   
782.000000	3.028725   
782.500000	3.074493   
783.000000	3.096061   
783.500000	3.132946   
784.000000	3.143291   
784.500000	3.167215   
785.000000	3.203248   
785.500000	3.177944   
786.000000	3.160191   
786.500000	3.121471   
787.000000	3.083599   
787.500000	3.008673   
788.000000	2.930684   
788.500000	2.946558   
789.000000	2.955831   
789.500000	2.985222   
790.000000	3.007899   
790.500000	3.052565   
791.000000	3.071909   
791.500000	3.035074   
792.000000	3.014740   
792.500000	2.990218   
793.000000	2.940970   
793.500000	2.828623   
794.000000	2.709400   
794.500000	2.592328   
795.000000	2.511840   
795.500000	2.514755   
796.000000	2.559187   
796.500000	2.586128   
797.000000	2.581452   
797.500000	2.552797   
798.000000	2.498627   
798.500000	2.464274   
799.000000	2.458567   
799.500000	2.487649   
800.000000	2.500649   
800.500000	2.464536   
801.000000	2.408261   
801.500000	2.326521   
802.000000	2.210337   
802.500000	2.117241   
803.000000	2.081820   
803.500000	2.108697   
804.000000	2.134174   
804.500000	2.142684   
805.000000	2.201294   
805.500000	2.199272   
806.000000	2.122693   
806.500000	1.977137   
807.000000	1.871024   
807.500000	1.796975   
808.000000	1.773500   
808.500000	1.862374   
809.000000	1.953933   
809.500000	2.033480   
810.000000	2.004035   
810.500000	1.978853   
811.000000	1.929645   
811.500000	1.902333   
812.000000	1.901001   
812.500000	1.934235   
813.000000	1.955348   
813.500000	1.881931   
814.000000	1.834371   
814.500000	1.768393   
815.000000	1.745786   
815.500000	1.725239   
816.000000	1.758487   
816.500000	1.744463   
817.000000	1.659443   
817.500000	1.620992   
818.000000	1.609497   
818.500000	1.699142   
819.000000	1.817402   
819.500000	2.011441   
820.000000	2.154944   
820.500000	2.220569   
821.000000	2.257829   
821.500000	2.235858   
822.000000	2.247701   
822.500000	2.261576   
823.000000	2.341417   
823.500000	2.427339   
824.000000	2.509526   
824.500000	2.576786   
825.000000	2.574359   
825.500000	2.590925   
826.000000	2.559376   
826.500000	2.530725   
827.000000	2.434126   
827.500000	2.293384   
828.000000	2.097710   
828.500000	1.862549   
829.000000	1.657361   
829.500000	1.467207   
830.000000	1.365187   
830.500000	1.319378   
831.000000	1.321482   
831.500000	1.325474   
832.000000	1.299857   
832.500000	1.249133   
833.000000	1.149756   
833.500000	1.051096   
834.000000	0.958404   
834.500000	0.905988   
835.000000	0.899163   
835.500000	0.949170   
836.000000	1.016204   
836.500000	1.064406   
837.000000	1.062428   
837.500000	1.002040   
838.000000	0.890816   
838.500000	0.784122   
839.000000	0.735313   
839.500000	0.700936   
840.000000	0.679320   
840.500000	0.713009   
841.000000	0.757183   
841.500000	0.748925   
842.000000	0.724962   
842.500000	0.741589   
843.000000	0.736907   
843.500000	0.715829   
844.000000	0.704582   
844.500000	0.739395   
845.000000	0.745304   
845.500000	0.720593   
846.000000	0.695192   
846.500000	0.629194   
847.000000	0.553482   
847.500000	0.455756   
848.000000	0.394231   
848.500000	0.348948   
849.000000	0.300534   
849.500000	0.253892   
850.000000	0.192298   
850.500000	0.169115   
851.000000	0.146482   
851.500000	0.130063   
852.000000	0.115664   
852.500000	0.082983   
853.000000	0.035575   
853.500000	-0.036974  
854.000000	-0.086038  
854.500000	-0.081562  
855.000000	-0.011523  
855.500000	0.116916   
856.000000	0.248530   
856.500000	0.318178   
857.000000	0.318495   
857.500000	0.241589   
858.000000	0.124172   
858.500000	0.024270   
859.000000	-0.032675  
859.500000	-0.002782  
860.000000	0.053504   
860.500000	0.129495   
861.000000	0.180335   
861.500000	0.178285   
862.000000	0.158122   
862.500000	0.116599   
863.000000	0.086109   
863.500000	0.057877   
864.000000	0.055020   
864.500000	0.038083   
865.000000	0.011630   
865.500000	0.012057   
866.000000	0.034695   
866.500000	0.050458   
867.000000	0.074404   
867.500000	0.111888   
868.000000	0.121734   
868.500000	0.100445   
869.000000	0.056213   
869.500000	0.036684   
870.000000	-0.006389  
870.500000	-0.059753  
871.000000	-0.090818  
871.500000	-0.117807  
872.000000	-0.144042  
872.500000	-0.157827  
873.000000	-0.157181  
873.500000	-0.166282  
874.000000	-0.209217  
874.500000	-0.246174  
875.000000	-0.261480  
875.500000	-0.267779  
876.000000	-0.228602  
876.500000	-0.136172  
877.000000	-0.031363  
877.500000	0.026925   
878.000000	0.050063   
878.500000	0.042109   
879.000000	0.015601   
879.500000	-0.021259  
880.000000	-0.039437  
880.500000	-0.046009  
881.000000	-0.058345  
881.500000	-0.072645  
882.000000	-0.077512  
882.500000	-0.076617  
883.000000	-0.096419  
883.500000	-0.106658  
884.000000	-0.114335  
884.500000	-0.134087  
885.000000	-0.172784  
885.500000	-0.200343  
886.000000	-0.205226  
886.500000	-0.205367  
887.000000	-0.186187  
887.500000	-0.139595  
888.000000	-0.094434  
888.500000	-0.064701  
889.000000	-0.051706  
889.500000	-0.046643  
890.000000	-0.040141  
890.500000	-0.057311  
891.000000	-0.062025  
891.500000	-0.034977  
892.000000	0.029651   
892.500000	0.049172   
893.000000	0.049343   
893.500000	0.074589   
894.000000	0.078298   
894.500000	0.057801   
895.000000	0.042604   
895.500000	0.071168   
896.000000	0.069849   
896.500000	0.041243   

